PE IR       SUBTECH     SPECTRUM    ASCII       PEDS        4.00        
   -1
AlO2 transmittance.ASC
25/04/22
09:45:42.00
25/04/22
09:45:42.00
Praktikum
Sample 018 By Praktikum date Dienstag, April 22 2025
200,000000
#HDR
-1
-1
#GR
cm-1
EGY
1.0
0.0
4000,000000
-1,000000
3801
8
53,584410
0,002255
#DATA
4000,000000	38,180987
3999,000000	38,212628
3998,000000	38,168915
3997,000000	38,090084
3996,000000	38,064715
3995,000000	38,129466
3994,000000	38,224221
3993,000000	38,260309
3992,000000	38,220911
3991,000000	38,178502
3990,000000	38,207524
3989,000000	38,296543
3988,000000	38,363956
3987,000000	38,354216
3986,000000	38,300642
3985,000000	38,284816
3984,000000	38,344269
3983,000000	38,431886
3982,000000	38,471186
3981,000000	38,439620
3980,000000	38,386551
3979,000000	38,370641
3978,000000	38,390992
3977,000000	38,394739
3976,000000	38,351178
3975,000000	38,300475
3974,000000	38,312661
3973,000000	38,404820
3972,000000	38,512520
3971,000000	38,555093
3970,000000	38,524767
3969,000000	38,494360
3968,000000	38,531590
3967,000000	38,617082
3966,000000	38,660250
3965,000000	38,601070
3964,000000	38,487567
3963,000000	38,432102
3962,000000	38,491403
3961,000000	38,604776
3960,000000	38,663806
3959,000000	38,632728
3958,000000	38,581652
3957,000000	38,596625
3956,000000	38,675075
3955,000000	38,726171
3954,000000	38,667364
3953,000000	38,505320
3952,000000	38,320730
3951,000000	38,192569
3950,000000	38,145632
3949,000000	38,160724
3948,000000	38,205115
3947,000000	38,240190
3946,000000	38,226788
3945,000000	38,157702
3944,000000	38,090148
3943,000000	38,118973
3942,000000	38,293452
3941,000000	38,568769
3940,000000	38,843287
3939,000000	39,025222
3938,000000	39,057557
3937,000000	38,913500
3936,000000	38,613529
3935,000000	38,249574
3934,000000	37,952424
3933,000000	37,818905
3932,000000	37,873785
3931,000000	38,084342
3930,000000	38,369450
3929,000000	38,591695
3928,000000	38,614396
3927,000000	38,425354
3926,000000	38,185761
3925,000000	38,101436
3924,000000	38,219606
3923,000000	38,378386
3922,000000	38,361454
3921,000000	38,093662
3920,000000	37,706069
3919,000000	37,439108
3918,000000	37,484081
3917,000000	37,856714
3916,000000	38,392283
3915,000000	38,877080
3914,000000	39,205225
3913,000000	39,415340
3912,000000	39,575796
3911,000000	39,657744
3910,000000	39,536908
3909,000000	39,095167
3908,000000	38,304052
3907,000000	37,251632
3906,000000	36,137775
3905,000000	35,216867
3904,000000	34,674303
3903,000000	34,535421
3902,000000	34,718166
3901,000000	35,167624
3900,000000	35,892537
3899,000000	36,847643
3898,000000	37,844989
3897,000000	38,607910
3896,000000	38,894012
3895,000000	38,593810
3894,000000	37,834297
3893,000000	37,048255
3892,000000	36,776639
3891,000000	37,182752
3890,000000	37,764115
3889,000000	37,780096
3888,000000	37,036240
3887,000000	36,153453
3886,000000	35,907330
3885,000000	36,396539
3884,000000	37,001474
3883,000000	37,133552
3882,000000	36,879783
3881,000000	36,840868
3880,000000	37,400897
3879,000000	38,273180
3878,000000	38,787359
3877,000000	38,585371
3876,000000	37,949459
3875,000000	37,371837
3874,000000	36,935581
3873,000000	36,315247
3872,000000	35,415660
3871,000000	34,735986
3870,000000	34,852619
3869,000000	35,662957
3868,000000	36,427586
3867,000000	36,576863
3866,000000	36,271551
3865,000000	36,102697
3864,000000	36,426108
3863,000000	37,143344
3862,000000	37,953674
3861,000000	38,608849
3860,000000	38,893521
3859,000000	38,510945
3858,000000	37,134148
3857,000000	34,691962
3856,000000	31,718922
3855,000000	29,359590
3854,000000	28,764107
3853,000000	30,257353
3852,000000	33,081957
3851,000000	35,994860
3850,000000	38,127066
3849,000000	39,288823
3848,000000	39,678731
3847,000000	39,528295
3846,000000	39,038110
3845,000000	38,412783
3844,000000	37,794742
3843,000000	37,170679
3842,000000	36,412962
3841,000000	35,456271
3840,000000	34,463494
3839,000000	33,809773
3838,000000	33,849108
3837,000000	34,606239
3836,000000	35,704776
3835,000000	36,651363
3834,000000	37,221560
3833,000000	37,569429
3832,000000	37,972770
3831,000000	38,514332
3830,000000	39,010135
3829,000000	39,244701
3828,000000	39,221530
3827,000000	39,107563
3826,000000	38,897991
3825,000000	38,275520
3824,000000	37,019160
3823,000000	35,536861
3822,000000	34,699834
3821,000000	34,955581
3820,000000	35,744694
3819,000000	36,100223
3818,000000	35,755902
3817,000000	35,432954
3816,000000	35,974053
3815,000000	37,428382
3814,000000	39,118824
3813,000000	40,338539
3812,000000	40,763944
3811,000000	40,339873
3810,000000	39,200473
3809,000000	37,829826
3808,000000	36,977878
3807,000000	37,039580
3806,000000	37,520076
3805,000000	37,437601
3804,000000	36,410393
3803,000000	35,186830
3802,000000	34,887195
3801,000000	35,801397
3800,000000	37,173097
3799,000000	38,124155
3798,000000	38,543330
3797,000000	38,917157
3796,000000	39,568607
3795,000000	40,328995
3794,000000	40,885750
3793,000000	41,174025
3792,000000	41,338246
3791,000000	41,475928
3790,000000	41,537368
3789,000000	41,431869
3788,000000	41,164794
3787,000000	40,879208
3786,000000	40,752285
3785,000000	40,812904
3784,000000	40,858781
3783,000000	40,636946
3782,000000	40,144674
3781,000000	39,697685
3780,000000	39,652921
3779,000000	40,069419
3778,000000	40,684219
3777,000000	41,194237
3776,000000	41,485556
3775,000000	41,554269
3774,000000	41,304906
3773,000000	40,610316
3772,000000	39,630522
3771,000000	38,881468
3770,000000	38,776224
3769,000000	39,163620
3768,000000	39,528410
3767,000000	39,646466
3766,000000	39,784066
3765,000000	40,181690
3764,000000	40,592924
3763,000000	40,562337
3762,000000	39,996775
3761,000000	39,272978
3760,000000	38,851568
3759,000000	38,925284
3758,000000	39,322133
3757,000000	39,550216
3756,000000	39,029211
3755,000000	37,538955
3754,000000	35,468831
3753,000000	33,542866
3752,000000	32,351903
3751,000000	32,169916
3750,000000	32,908738
3749,000000	33,949822
3748,000000	34,283258
3747,000000	33,371531
3746,000000	31,955095
3745,000000	31,555667
3744,000000	32,954165
3743,000000	35,428624
3742,000000	37,567637
3741,000000	38,475542
3740,000000	38,089037
3739,000000	36,791771
3738,000000	35,174652
3737,000000	33,934280
3736,000000	33,499265
3735,000000	33,731899
3734,000000	34,257866
3733,000000	35,017853
3732,000000	36,175969
3731,000000	37,549699
3730,000000	38,521211
3729,000000	38,678849
3728,000000	38,281934
3727,000000	37,926410
3726,000000	37,916562
3725,000000	38,123527
3724,000000	38,336530
3723,000000	38,545379
3722,000000	38,875788
3721,000000	39,396398
3720,000000	40,047108
3719,000000	40,686498
3718,000000	41,127803
3717,000000	41,136157
3716,000000	40,493711
3715,000000	39,195743
3714,000000	37,605480
3713,000000	36,328015
3712,000000	35,848485
3711,000000	36,260716
3710,000000	37,321380
3709,000000	38,655891
3708,000000	39,876635
3707,000000	40,644167
3706,000000	40,774691
3705,000000	40,364399
3704,000000	39,756344
3703,000000	39,353346
3702,000000	39,405206
3701,000000	39,876532
3700,000000	40,501399
3699,000000	41,009900
3698,000000	41,322495
3697,000000	41,477404
3696,000000	41,412048
3695,000000	40,953929
3694,000000	40,045333
3693,000000	38,826479
3692,000000	37,483751
3691,000000	36,222952
3690,000000	35,452767
3689,000000	35,716288
3688,000000	37,164180
3687,000000	39,209346
3686,000000	40,950962
3685,000000	41,896548
3684,000000	42,149564
3683,000000	42,027014
3682,000000	41,725474
3681,000000	41,248600
3680,000000	40,382439
3679,000000	38,817225
3678,000000	36,669928
3677,000000	34,843030
3676,000000	34,421836
3675,000000	35,467815
3674,000000	36,765537
3673,000000	37,083247
3672,000000	36,478514
3671,000000	36,102275
3670,000000	36,851192
3669,000000	38,544152
3668,000000	40,371766
3667,000000	41,754603
3666,000000	42,614816
3665,000000	43,091800
3664,000000	43,289399
3663,000000	43,283315
3662,000000	43,152990
3661,000000	42,891202
3660,000000	42,358772
3659,000000	41,469913
3658,000000	40,473701
3657,000000	39,904543
3656,000000	40,062833
3655,000000	40,536498
3654,000000	40,411284
3653,000000	39,122787
3652,000000	37,036737
3651,000000	35,161254
3650,000000	34,368617
3649,000000	34,908004
3648,000000	36,479054
3647,000000	38,497380
3646,000000	40,331247
3645,000000	41,573609
3644,000000	42,230604
3643,000000	42,570919
3642,000000	42,771906
3641,000000	42,810560
3640,000000	42,689347
3639,000000	42,555500
3638,000000	42,489079
3637,000000	42,352194
3636,000000	42,004072
3635,000000	41,514235
3634,000000	40,934683
3633,000000	39,990362
3632,000000	38,351826
3631,000000	36,314882
3630,000000	34,901858
3629,000000	35,041791
3628,000000	36,691009
3627,000000	38,909502
3626,000000	40,691034
3625,000000	41,579687
3624,000000	41,594797
3623,000000	40,931364
3622,000000	39,893635
3621,000000	38,937596
3620,000000	38,510037
3619,000000	38,759115
3618,000000	39,429846
3617,000000	40,074211
3616,000000	40,380946
3615,000000	40,340170
3614,000000	40,135094
3613,000000	39,907746
3612,000000	39,658151
3611,000000	39,379612
3610,000000	39,220796
3609,000000	39,408150
3608,000000	40,000295
3607,000000	40,802318
3606,000000	41,534508
3605,000000	42,014651
3604,000000	42,171911
3603,000000	42,019375
3602,000000	41,699329
3601,000000	41,460518
3600,000000	41,452285
3599,000000	41,558898
3598,000000	41,530162
3597,000000	41,283530
3596,000000	41,022632
3595,000000	41,032385
3594,000000	41,372849
3593,000000	41,756082
3592,000000	41,729176
3591,000000	41,052224
3590,000000	39,988526
3589,000000	39,178098
3588,000000	39,134524
3587,000000	39,843770
3586,000000	40,868069
3585,000000	41,782958
3584,000000	42,439254
3583,000000	42,873902
3582,000000	43,122766
3581,000000	43,194987
3580,000000	43,150246
3579,000000	43,106980
3578,000000	43,158153
3577,000000	43,292720
3576,000000	43,410634
3575,000000	43,426049
3574,000000	43,353724
3573,000000	43,242504
3572,000000	43,008300
3571,000000	42,426704
3570,000000	41,413011
3569,000000	40,297056
3568,000000	39,671489
3567,000000	39,895238
3566,000000	40,774292
3565,000000	41,763720
3564,000000	42,434055
3563,000000	42,741468
3562,000000	42,907545
3561,000000	43,129425
3560,000000	43,407715
3559,000000	43,609480
3558,000000	43,648440
3557,000000	43,571175
3556,000000	43,468176
3555,000000	43,355888
3554,000000	43,205115
3553,000000	43,055315
3552,000000	43,008566
3551,000000	43,081609
3550,000000	43,134270
3549,000000	43,000274
3548,000000	42,677180
3547,000000	42,360144
3546,000000	42,290047
3545,000000	42,560703
3544,000000	43,043056
3543,000000	43,482375
3542,000000	43,701224
3541,000000	43,723433
3540,000000	43,696095
3539,000000	43,704755
3538,000000	43,711395
3537,000000	43,663176
3536,000000	43,597544
3535,000000	43,598370
3534,000000	43,679338
3533,000000	43,745849
3532,000000	43,673024
3531,000000	43,425277
3530,000000	43,116623
3529,000000	42,933916
3528,000000	42,958133
3527,000000	43,065475
3526,000000	43,065417
3525,000000	42,941618
3524,000000	42,889115
3523,000000	43,072382
3522,000000	43,411710
3521,000000	43,669555
3520,000000	43,722103
3519,000000	43,670047
3518,000000	43,685753
3517,000000	43,809154
3516,000000	43,922287
3515,000000	43,891424
3514,000000	43,710025
3513,000000	43,500245
3512,000000	43,390900
3511,000000	43,401458
3510,000000	43,451616
3509,000000	43,466576
3508,000000	43,442979
3507,000000	43,406738
3506,000000	43,348638
3505,000000	43,238180
3504,000000	43,096598
3503,000000	43,021624
3502,000000	43,114299
3501,000000	43,367903
3500,000000	43,637195
3499,000000	43,744022
3498,000000	43,645327
3497,000000	43,489516
3496,000000	43,469243
3495,000000	43,618199
3494,000000	43,781188
3493,000000	43,797001
3492,000000	43,671057
3491,000000	43,547229
3490,000000	43,536234
3489,000000	43,609990
3488,000000	43,654439
3487,000000	43,598679
3486,000000	43,483418
3485,000000	43,406400
3484,000000	43,410405
3483,000000	43,438804
3482,000000	43,421340
3481,000000	43,385541
3480,000000	43,435989
3479,000000	43,607867
3478,000000	43,788632
3477,000000	43,827532
3476,000000	43,709208
3475,000000	43,578575
3474,000000	43,584668
3473,000000	43,724741
3472,000000	43,851684
3471,000000	43,833216
3470,000000	43,694330
3469,000000	43,592235
3468,000000	43,642100
3467,000000	43,780914
3466,000000	43,836997
3465,000000	43,734447
3464,000000	43,589588
3463,000000	43,575111
3462,000000	43,718754
3461,000000	43,878050
3460,000000	43,910957
3459,000000	43,834810
3458,000000	43,790889
3457,000000	43,870723
3456,000000	44,006370
3455,000000	44,051172
3454,000000	43,960884
3453,000000	43,852587
3452,000000	43,856003
3451,000000	43,932579
3450,000000	43,908091
3449,000000	43,700138
3448,000000	43,453363
3447,000000	43,393220
3446,000000	43,568196
3445,000000	43,800328
3444,000000	43,891743
3443,000000	43,834218
3442,000000	43,788322
3441,000000	43,882655
3440,000000	44,072286
3439,000000	44,195596
3438,000000	44,155129
3437,000000	44,026739
3436,000000	43,977391
3435,000000	44,080717
3434,000000	44,234385
3433,000000	44,280580
3432,000000	44,194851
3431,000000	44,115957
3430,000000	44,180137
3429,000000	44,356695
3428,000000	44,481509
3427,000000	44,446639
3426,000000	44,318458
3425,000000	44,251185
3424,000000	44,304423
3423,000000	44,383184
3422,000000	44,368691
3421,000000	44,277410
3420,000000	44,252796
3419,000000	44,393338
3418,000000	44,620827
3417,000000	44,752332
3416,000000	44,698921
3415,000000	44,565417
3414,000000	44,534367
3413,000000	44,662897
3412,000000	44,823155
3411,000000	44,852493
3410,000000	44,741385
3409,000000	44,642334
3408,000000	44,688022
3407,000000	44,832625
3406,000000	44,906335
3405,000000	44,818836
3404,000000	44,671070
3403,000000	44,639693
3402,000000	44,768789
3401,000000	44,917271
3400,000000	44,923708
3399,000000	44,797257
3398,000000	44,707189
3397,000000	44,779694
3396,000000	44,943477
3395,000000	45,013792
3394,000000	44,919292
3393,000000	44,797011
3392,000000	44,834965
3391,000000	45,047362
3390,000000	45,251199
3389,000000	45,271130
3388,000000	45,130462
3387,000000	45,015723
3386,000000	45,066118
3385,000000	45,228749
3384,000000	45,333568
3383,000000	45,293577
3382,000000	45,201183
3381,000000	45,212814
3380,000000	45,356088
3379,000000	45,489118
3378,000000	45,469249
3377,000000	45,330937
3376,000000	45,252182
3375,000000	45,344354
3374,000000	45,517818
3373,000000	45,585133
3372,000000	45,479098
3371,000000	45,326834
3370,000000	45,296873
3369,000000	45,405386
3368,000000	45,505402
3367,000000	45,467631
3366,000000	45,339496
3365,000000	45,291544
3364,000000	45,412456
3363,000000	45,598125
3362,000000	45,668808
3361,000000	45,577846
3360,000000	45,462364
3359,000000	45,478348
3358,000000	45,619487
3357,000000	45,731288
3356,000000	45,698797
3355,000000	45,582652
3354,000000	45,546745
3353,000000	45,664806
3352,000000	45,829277
3351,000000	45,871653
3350,000000	45,760025
3349,000000	45,641956
3348,000000	45,674372
3347,000000	45,837310
3346,000000	45,955792
3345,000000	45,908035
3344,000000	45,771163
3343,000000	45,727683
3342,000000	45,845275
3341,000000	45,993145
3340,000000	45,994061
3339,000000	45,834969
3338,000000	45,689758
3337,000000	45,724535
3336,000000	45,909413
3335,000000	46,054808
3334,000000	46,031371
3333,000000	45,915570
3332,000000	45,888218
3331,000000	46,011435
3330,000000	46,152043
3329,000000	46,143019
3328,000000	45,990131
3327,000000	45,873034
3326,000000	45,938206
3325,000000	46,128772
3324,000000	46,249993
3323,000000	46,193654
3322,000000	46,058752
3321,000000	46,030221
3320,000000	46,159565
3319,000000	46,304789
3318,000000	46,301964
3317,000000	46,161992
3316,000000	46,058383
3315,000000	46,123044
3314,000000	46,289692
3313,000000	46,367437
3312,000000	46,262782
3311,000000	46,092778
3310,000000	46,053742
3309,000000	46,194830
3308,000000	46,362297
3307,000000	46,381649
3306,000000	46,265365
3305,000000	46,196444
3304,000000	46,302207
3303,000000	46,494572
3302,000000	46,572233
3301,000000	46,459871
3300,000000	46,298323
3299,000000	46,281441
3298,000000	46,432606
3297,000000	46,580825
3296,000000	46,561341
3295,000000	46,406406
3294,000000	46,305765
3293,000000	46,384876
3292,000000	46,556967
3291,000000	46,626219
3290,000000	46,526707
3289,000000	46,403348
3288,000000	46,435837
3287,000000	46,618832
3286,000000	46,763100
3285,000000	46,720988
3284,000000	46,561788
3283,000000	46,486255
3282,000000	46,590097
3281,000000	46,753929
3280,000000	46,783985
3279,000000	46,640577
3278,000000	46,485319
3277,000000	46,493342
3276,000000	46,651303
3275,000000	46,774935
3274,000000	46,729380
3273,000000	46,592347
3272,000000	46,560268
3271,000000	46,710797
3270,000000	46,906098
3269,000000	46,951526
3268,000000	46,825502
3267,000000	46,704804
3266,000000	46,754748
3265,000000	46,935822
3264,000000	47,049163
3263,000000	46,971404
3262,000000	46,803372
3261,000000	46,751003
3260,000000	46,883722
3259,000000	47,051475
3258,000000	47,060761
3257,000000	46,906931
3256,000000	46,779807
3255,000000	46,842015
3254,000000	47,038915
3253,000000	47,161599
3252,000000	47,095278
3251,000000	46,950865
3250,000000	46,927846
3249,000000	47,070916
3248,000000	47,211031
3247,000000	47,173791
3246,000000	46,997050
3245,000000	46,894225
3244,000000	47,002918
3243,000000	47,218215
3242,000000	47,317381
3241,000000	47,217519
3240,000000	47,066106
3239,000000	47,063850
3238,000000	47,229567
3237,000000	47,383920
3236,000000	47,358262
3235,000000	47,192177
3234,000000	47,089695
3233,000000	47,180586
3232,000000	47,368170
3231,000000	47,440529
3230,000000	47,325801
3229,000000	47,182090
3228,000000	47,208933
3227,000000	47,406681
3226,000000	47,570915
3225,000000	47,534470
3224,000000	47,359884
3223,000000	47,260729
3222,000000	47,349902
3221,000000	47,516008
3220,000000	47,565707
3219,000000	47,453002
3218,000000	47,330209
3217,000000	47,361371
3216,000000	47,527212
3215,000000	47,645573
3214,000000	47,586788
3213,000000	47,430403
3212,000000	47,375103
3211,000000	47,508959
3210,000000	47,701827
3209,000000	47,757280
3208,000000	47,642219
3207,000000	47,527531
3206,000000	47,583970
3205,000000	47,773732
3204,000000	47,891790
3203,000000	47,809586
3202,000000	47,632579
3201,000000	47,573950
3200,000000	47,702333
3199,000000	47,862479
3198,000000	47,868259
3197,000000	47,727135
3196,000000	47,631958
3195,000000	47,728450
3194,000000	47,939324
3193,000000	48,050385
3192,000000	47,959342
3191,000000	47,798643
3190,000000	47,779659
3189,000000	47,942666
3188,000000	48,103639
3187,000000	48,074346
3186,000000	47,891124
3185,000000	47,779807
3184,000000	47,887230
3183,000000	48,105907
3182,000000	48,194928
3181,000000	48,062719
3180,000000	47,871783
3179,000000	47,851157
3178,000000	48,032187
3177,000000	48,216916
3176,000000	48,212438
3175,000000	48,057696
3174,000000	47,972622
3173,000000	48,091241
3172,000000	48,297017
3171,000000	48,363341
3170,000000	48,228235
3169,000000	48,070249
3168,000000	48,093928
3167,000000	48,285698
3166,000000	48,433077
3165,000000	48,379021
3164,000000	48,206829
3163,000000	48,140607
3162,000000	48,280422
3161,000000	48,483206
3160,000000	48,528345
3159,000000	48,378756
3158,000000	48,227685
3157,000000	48,270448
3156,000000	48,469532
3155,000000	48,599301
3154,000000	48,517515
3153,000000	48,338441
3152,000000	48,293854
3151,000000	48,456951
3150,000000	48,654693
3149,000000	48,674447
3148,000000	48,513194
3147,000000	48,380347
3146,000000	48,449675
3145,000000	48,656161
3144,000000	48,770350
3143,000000	48,671540
3142,000000	48,492557
3141,000000	48,463984
3140,000000	48,638122
3139,000000	48,825157
3138,000000	48,818700
3137,000000	48,638316
3136,000000	48,502787
3135,000000	48,570681
3134,000000	48,760781
3133,000000	48,855910
3132,000000	48,763185
3131,000000	48,619270
3130,000000	48,624912
3129,000000	48,800555
3128,000000	48,955534
3127,000000	48,911682
3126,000000	48,719617
3125,000000	48,606166
3124,000000	48,707591
3123,000000	48,908263
3122,000000	48,976607
3121,000000	48,841647
3120,000000	48,675894
3119,000000	48,688204
3118,000000	48,875260
3117,000000	49,026237
3116,000000	48,977286
3115,000000	48,810916
3114,000000	48,759470
3113,000000	48,923169
3112,000000	49,143092
3111,000000	49,185631
3110,000000	49,022672
3109,000000	48,868020
3108,000000	48,922672
3107,000000	49,136972
3106,000000	49,268951
3105,000000	49,169313
3104,000000	48,955637
3103,000000	48,874526
3102,000000	49,018204
3101,000000	49,220883
3100,000000	49,254856
3099,000000	49,097620
3098,000000	48,957423
3097,000000	49,025420
3096,000000	49,246499
3095,000000	49,385344
3094,000000	49,310463
3093,000000	49,152848
3092,000000	49,143951
3091,000000	49,331120
3090,000000	49,516557
3089,000000	49,494988
3088,000000	49,304013
3087,000000	49,182745
3086,000000	49,287874
3085,000000	49,504170
3084,000000	49,578617
3083,000000	49,422161
3082,000000	49,217937
3081,000000	49,205806
3080,000000	49,400085
3079,000000	49,577917
3078,000000	49,549400
3077,000000	49,381484
3076,000000	49,310612
3075,000000	49,454822
3074,000000	49,670243
3073,000000	49,720541
3072,000000	49,555005
3071,000000	49,368746
3070,000000	49,371331
3069,000000	49,538298
3068,000000	49,641813
3067,000000	49,529442
3066,000000	49,317855
3065,000000	49,260633
3064,000000	49,445547
3063,000000	49,683821
3062,000000	49,728422
3061,000000	49,559667
3060,000000	49,399413
3059,000000	49,445375
3058,000000	49,642848
3057,000000	49,760363
3056,000000	49,671696
3055,000000	49,508200
3054,000000	49,500371
3053,000000	49,694692
3052,000000	49,887078
3051,000000	49,861576
3050,000000	49,655346
3049,000000	49,522788
3048,000000	49,637019
3047,000000	49,881962
3046,000000	49,989868
3045,000000	49,858101
3044,000000	49,666013
3043,000000	49,657497
3042,000000	49,852347
3041,000000	50,026374
3040,000000	49,978535
3039,000000	49,768288
3038,000000	49,642804
3037,000000	49,742717
3036,000000	49,932659
3035,000000	49,960979
3034,000000	49,762988
3033,000000	49,547969
3032,000000	49,558658
3031,000000	49,784367
3030,000000	49,969867
3029,000000	49,912594
3028,000000	49,697484
3027,000000	49,588715
3026,000000	49,710061
3025,000000	49,896810
3024,000000	49,899591
3023,000000	49,690346
3022,000000	49,497381
3021,000000	49,526924
3020,000000	49,714765
3019,000000	49,807086
3018,000000	49,672190
3017,000000	49,461810
3016,000000	49,432044
3015,000000	49,639661
3014,000000	49,876927
3013,000000	49,917520
3012,000000	49,783402
3011,000000	49,714947
3010,000000	49,881546
3009,000000	50,169518
3008,000000	50,307828
3007,000000	50,187517
3006,000000	49,995387
3005,000000	49,994856
3004,000000	50,214861
3003,000000	50,418195
3002,000000	50,389084
3001,000000	50,189034
3000,000000	50,079672
2999,000000	50,206811
2998,000000	50,427038
2997,000000	50,479695
2996,000000	50,301038
2995,000000	50,103947
2994,000000	50,126431
2993,000000	50,346157
2992,000000	50,503714
2991,000000	50,411599
2990,000000	50,179391
2989,000000	50,081878
2988,000000	50,229698
2987,000000	50,438716
2986,000000	50,451812
2985,000000	50,246685
2984,000000	50,057208
2983,000000	50,090952
2982,000000	50,280260
2981,000000	50,364039
2980,000000	50,203165
2979,000000	49,948991
2978,000000	49,862481
2977,000000	49,999016
2976,000000	50,138626
2975,000000	50,049920
2974,000000	49,768056
2973,000000	49,550228
2972,000000	49,566826
2971,000000	49,697584
2970,000000	49,678737
2969,000000	49,418715
2968,000000	49,107980
2967,000000	48,996822
2966,000000	49,101192
2965,000000	49,188462
2964,000000	49,056212
2963,000000	48,777069
2962,000000	48,613610
2961,000000	48,701603
2960,000000	48,886284
2959,000000	48,907308
2958,000000	48,712375
2957,000000	48,516677
2956,000000	48,541105
2955,000000	48,747691
2954,000000	48,885348
2953,000000	48,789065
2952,000000	48,572562
2951,000000	48,490755
2950,000000	48,632868
2949,000000	48,812307
2948,000000	48,786418
2947,000000	48,546734
2946,000000	48,331014
2945,000000	48,334742
2944,000000	48,475094
2943,000000	48,490165
2942,000000	48,257215
2941,000000	47,940281
2940,000000	47,792927
2939,000000	47,859359
2938,000000	47,927197
2937,000000	47,786969
2936,000000	47,482738
2935,000000	47,261230
2934,000000	47,276620
2933,000000	47,404221
2932,000000	47,386381
2931,000000	47,142178
2930,000000	46,866068
2929,000000	46,795326
2928,000000	46,927850
2927,000000	47,032240
2926,000000	46,935971
2925,000000	46,737251
2924,000000	46,690627
2923,000000	46,903404
2922,000000	47,210258
2921,000000	47,365555
2920,000000	47,331987
2919,000000	47,320320
2918,000000	47,534737
2917,000000	47,921284
2916,000000	48,225524
2915,000000	48,293914
2914,000000	48,259928
2913,000000	48,378787
2912,000000	48,714103
2911,000000	49,054661
2910,000000	49,165824
2909,000000	49,071620
2908,000000	49,026029
2907,000000	49,210498
2906,000000	49,520342
2905,000000	49,690439
2904,000000	49,614498
2903,000000	49,474672
2902,000000	49,526755
2901,000000	49,791611
2900,000000	50,027118
2899,000000	50,020499
2898,000000	49,847790
2897,000000	49,782335
2896,000000	49,965017
2895,000000	50,233307
2894,000000	50,320490
2893,000000	50,174834
2892,000000	50,021833
2891,000000	50,092571
2890,000000	50,347433
2889,000000	50,520792
2888,000000	50,439476
2887,000000	50,230315
2886,000000	50,171341
2885,000000	50,354209
2884,000000	50,572211
2883,000000	50,568315
2882,000000	50,347055
2881,000000	50,168553
2880,000000	50,232227
2879,000000	50,438391
2878,000000	50,508528
2877,000000	50,320636
2876,000000	50,053827
2875,000000	49,974710
2874,000000	50,118095
2873,000000	50,245322
2872,000000	50,127206
2871,000000	49,821468
2870,000000	49,602455
2869,000000	49,627827
2868,000000	49,747044
2867,000000	49,684260
2866,000000	49,377680
2865,000000	49,055264
2864,000000	48,965616
2863,000000	49,086116
2862,000000	49,160804
2861,000000	49,015342
2860,000000	48,766282
2859,000000	48,683351
2858,000000	48,862857
2857,000000	49,107764
2856,000000	49,159028
2855,000000	49,003876
2854,000000	48,890924
2853,000000	49,027774
2852,000000	49,330496
2851,000000	49,529246
2850,000000	49,501152
2849,000000	49,421751
2848,000000	49,553129
2847,000000	49,925075
2846,000000	50,291075
2845,000000	50,413775
2844,000000	50,339251
2843,000000	50,338855
2842,000000	50,581837
2841,000000	50,927841
2840,000000	51,094639
2839,000000	51,000616
2838,000000	50,869021
2837,000000	50,958917
2836,000000	51,250230
2835,000000	51,470588
2834,000000	51,426816
2833,000000	51,239465
2832,000000	51,196417
2831,000000	51,406903
2830,000000	51,672234
2829,000000	51,723403
2828,000000	51,544450
2827,000000	51,393844
2826,000000	51,495319
2825,000000	51,765716
2824,000000	51,912703
2823,000000	51,790419
2822,000000	51,578456
2821,000000	51,564996
2820,000000	51,794667
2819,000000	52,015661
2818,000000	51,987018
2817,000000	51,766856
2816,000000	51,642079
2815,000000	51,782350
2814,000000	52,037617
2813,000000	52,118725
2812,000000	51,942772
2811,000000	51,736339
2810,000000	51,763916
2809,000000	52,005613
2808,000000	52,178337
2807,000000	52,080198
2806,000000	51,837626
2805,000000	51,752219
2804,000000	51,933241
2803,000000	52,166779
2802,000000	52,177591
2801,000000	51,959774
2800,000000	51,781281
2799,000000	51,861129
2798,000000	52,109403
2797,000000	52,233366
2796,000000	52,090169
2795,000000	51,861415
2794,000000	51,835809
2793,000000	52,058849
2792,000000	52,273756
2791,000000	52,233572
2790,000000	52,003832
2789,000000	51,882711
2788,000000	52,037265
2787,000000	52,302632
2786,000000	52,383734
2785,000000	52,211168
2784,000000	52,020227
2783,000000	52,068456
2782,000000	52,324349
2781,000000	52,503545
2780,000000	52,409909
2779,000000	52,175439
2778,000000	52,103883
2777,000000	52,302075
2776,000000	52,546756
2775,000000	52,556864
2774,000000	52,335635
2773,000000	52,166686
2772,000000	52,266602
2771,000000	52,524852
2770,000000	52,640694
2769,000000	52,486441
2768,000000	52,258403
2767,000000	52,240981
2766,000000	52,464478
2765,000000	52,668146
2764,000000	52,612181
2763,000000	52,371238
2762,000000	52,246357
2761,000000	52,398654
2760,000000	52,650238
2759,000000	52,701552
2758,000000	52,498186
2757,000000	52,296039
2756,000000	52,347316
2755,000000	52,596342
2754,000000	52,749292
2753,000000	52,628747
2752,000000	52,386596
2751,000000	52,321197
2750,000000	52,519605
2749,000000	52,748930
2748,000000	52,736721
2747,000000	52,502465
2746,000000	52,337500
2745,000000	52,449608
2744,000000	52,707411
2743,000000	52,801984
2742,000000	52,625303
2741,000000	52,399732
2740,000000	52,404817
2739,000000	52,639762
2738,000000	52,827082
2737,000000	52,748570
2736,000000	52,505911
2735,000000	52,399166
2734,000000	52,565474
2733,000000	52,810412
2732,000000	52,841439
2731,000000	52,624821
2730,000000	52,431044
2729,000000	52,504172
2728,000000	52,762196
2727,000000	52,897748
2726,000000	52,754434
2725,000000	52,515750
2724,000000	52,478021
2723,000000	52,692664
2722,000000	52,906666
2721,000000	52,868385
2720,000000	52,631060
2719,000000	52,489212
2718,000000	52,624378
2717,000000	52,881408
2716,000000	52,953000
2715,000000	52,756072
2714,000000	52,536343
2713,000000	52,568969
2712,000000	52,819893
2711,000000	52,988611
2710,000000	52,877635
2709,000000	52,630149
2708,000000	52,552640
2707,000000	52,743559
2706,000000	52,977278
2705,000000	52,977779
2704,000000	52,750307
2703,000000	52,577145
2702,000000	52,677921
2701,000000	52,940663
2700,000000	53,054663
2699,000000	52,889684
2698,000000	52,658200
2697,000000	52,655538
2696,000000	52,896474
2695,000000	53,098043
2694,000000	53,027610
2693,000000	52,783942
2692,000000	52,673798
2691,000000	52,840034
2690,000000	53,090662
2689,000000	53,131900
2688,000000	52,922056
2687,000000	52,724085
2686,000000	52,788402
2685,000000	53,046005
2684,000000	53,188291
2683,000000	53,045130
2682,000000	52,795685
2681,000000	52,748989
2680,000000	52,964728
2679,000000	53,181976
2678,000000	53,141239
2677,000000	52,898868
2676,000000	52,754941
2675,000000	52,888394
2674,000000	53,142566
2673,000000	53,213761
2672,000000	53,017919
2671,000000	52,795353
2670,000000	52,821624
2669,000000	53,069690
2668,000000	53,239625
2667,000000	53,125688
2666,000000	52,871010
2665,000000	52,791501
2664,000000	52,986933
2663,000000	53,220873
2662,000000	53,212514
2661,000000	52,978250
2660,000000	52,807527
2659,000000	52,911498
2658,000000	53,168855
2657,000000	53,272221
2656,000000	53,099636
2655,000000	52,865528
2654,000000	52,862573
2653,000000	53,102695
2652,000000	53,298000
2651,000000	53,214441
2650,000000	52,961323
2649,000000	52,856029
2648,000000	53,032591
2647,000000	53,279394
2646,000000	53,301834
2645,000000	53,080433
2644,000000	52,891189
2643,000000	52,970132
2642,000000	53,227856
2641,000000	53,356881
2640,000000	53,204149
2639,000000	52,959199
2638,000000	52,927488
2637,000000	53,155039
2636,000000	53,368637
2635,000000	53,310931
2634,000000	53,059078
2633,000000	52,928767
2632,000000	53,083738
2631,000000	53,337706
2630,000000	53,385596
2629,000000	53,175224
2628,000000	52,967964
2627,000000	53,019969
2626,000000	53,272465
2625,000000	53,422332
2624,000000	53,288223
2623,000000	53,035105
2622,000000	52,976308
2621,000000	53,188493
2620,000000	53,414932
2619,000000	53,380734
2618,000000	53,133333
2617,000000	52,982230
2616,000000	53,115962
2615,000000	53,372675
2614,000000	53,442011
2613,000000	53,243776
2612,000000	53,022349
2611,000000	53,050137
2610,000000	53,297265
2609,000000	53,466114
2608,000000	53,352059
2607,000000	53,095126
2606,000000	53,013328
2605,000000	53,210328
2604,000000	53,443939
2603,000000	53,425227
2602,000000	53,175691
2601,000000	53,000712
2600,000000	53,111041
2599,000000	53,366475
2598,000000	53,452558
2597,000000	53,262938
2596,000000	53,026570
2595,000000	53,028354
2594,000000	53,264156
2593,000000	53,445219
2592,000000	53,347416
2591,000000	53,088919
2590,000000	52,988777
2589,000000	53,173619
2588,000000	53,418520
2587,000000	53,424233
2586,000000	53,189431
2585,000000	53,009937
2584,000000	53,111649
2583,000000	53,374528
2582,000000	53,484210
2581,000000	53,315761
2580,000000	53,082950
2579,000000	53,077128
2578,000000	53,313551
2577,000000	53,511345
2576,000000	53,432605
2575,000000	53,177701
2574,000000	53,064353
2573,000000	53,237048
2572,000000	53,485183
2571,000000	53,503699
2570,000000	53,274232
2569,000000	53,084329
2568,000000	53,171049
2567,000000	53,428910
2566,000000	53,545036
2565,000000	53,381091
2564,000000	53,139401
2563,000000	53,115847
2562,000000	53,341241
2561,000000	53,541226
2560,000000	53,470539
2559,000000	53,214818
2558,000000	53,090636
2557,000000	53,254547
2556,000000	53,505168
2555,000000	53,532855
2554,000000	53,303696
2553,000000	53,102087
2552,000000	53,175356
2551,000000	53,431381
2550,000000	53,556409
2549,000000	53,399821
2548,000000	53,155479
2547,000000	53,125060
2546,000000	53,348926
2545,000000	53,556037
2544,000000	53,491033
2543,000000	53,231864
2542,000000	53,097712
2541,000000	53,255226
2540,000000	53,509881
2539,000000	53,546966
2538,000000	53,323779
2537,000000	53,120007
2536,000000	53,188527
2535,000000	53,445623
2534,000000	53,577751
2533,000000	53,426360
2532,000000	53,179568
2531,000000	53,140311
2530,000000	53,360147
2529,000000	53,571559
2528,000000	53,515026
2527,000000	53,258572
2526,000000	53,119348
2525,000000	53,271602
2524,000000	53,527167
2523,000000	53,569611
2522,000000	53,348312
2521,000000	53,139419
2520,000000	53,200387
2519,000000	53,453157
2518,000000	53,584410
2517,000000	53,432832
2516,000000	53,182368
2515,000000	53,138870
2514,000000	53,355289
2513,000000	53,564834
2512,000000	53,506864
2511,000000	53,247657
2510,000000	53,105812
2509,000000	53,255238
2508,000000	53,507473
2507,000000	53,546206
2506,000000	53,320836
2505,000000	53,109647
2504,000000	53,168857
2503,000000	53,419378
2502,000000	53,548897
2501,000000	53,395880
2500,000000	53,146428
2499,000000	53,103423
2498,000000	53,318299
2497,000000	53,525256
2496,000000	53,464418
2495,000000	53,205959
2494,000000	53,066642
2493,000000	53,218325
2492,000000	53,470784
2491,000000	53,507078
2490,000000	53,281981
2489,000000	53,074999
2488,000000	53,139965
2487,000000	53,392367
2486,000000	53,517044
2485,000000	53,359489
2484,000000	53,111450
2483,000000	53,074742
2482,000000	53,292970
2481,000000	53,495083
2480,000000	53,426991
2479,000000	53,167314
2478,000000	53,034639
2477,000000	53,193517
2476,000000	53,444825
2475,000000	53,473201
2474,000000	53,242041
2473,000000	53,038172
2472,000000	53,111251
2471,000000	53,364357
2470,000000	53,480781
2469,000000	53,314036
2468,000000	53,066434
2467,000000	53,039082
2466,000000	53,262611
2465,000000	53,460161
2464,000000	53,384672
2463,000000	53,125862
2462,000000	53,004016
2461,000000	53,170750
2460,000000	53,417010
2459,000000	53,432888
2458,000000	53,196670
2457,000000	53,002013
2456,000000	53,087836
2455,000000	53,343816
2454,000000	53,450029
2453,000000	53,274442
2452,000000	53,032232
2451,000000	53,018837
2450,000000	53,249115
2449,000000	53,438211
2448,000000	53,349692
2447,000000	53,089951
2446,000000	52,979507
2445,000000	53,156603
2444,000000	53,400004
2443,000000	53,403885
2442,000000	53,162880
2441,000000	52,978191
2440,000000	53,078659
2439,000000	53,335764
2438,000000	53,428680
2437,000000	53,243398
2436,000000	53,009033
2435,000000	53,014129
2434,000000	53,250446
2433,000000	53,423930
2432,000000	53,315622
2431,000000	53,053499
2430,000000	52,959760
2429,000000	53,149365
2428,000000	53,382749
2427,000000	53,363813
2426,000000	53,111727
2425,000000	52,938846
2424,000000	53,056982
2423,000000	53,313153
2422,000000	53,385886
2421,000000	53,183847
2420,000000	52,956000
2419,000000	52,979521
2418,000000	53,219547
2417,000000	53,375320
2416,000000	53,248837
2415,000000	52,991836
2414,000000	52,919997
2413,000000	53,120919
2412,000000	53,341297
2411,000000	53,299545
2410,000000	53,042748
2409,000000	52,889071
2408,000000	53,027115
2407,000000	53,279575
2406,000000	53,327164
2405,000000	53,110082
2404,000000	52,897410
2403,000000	52,949407
2402,000000	53,196977
2401,000000	53,329736
2400,000000	53,180556
2399,000000	52,930470
2398,000000	52,887160
2397,000000	53,103081
2396,000000	53,305580
2395,000000	53,234002
2394,000000	52,966528
2393,000000	52,823353
2392,000000	52,957701
2391,000000	53,149694
2390,000000	53,069882
2389,000000	52,669542
2388,000000	52,203413
2387,000000	51,866627
2386,000000	51,502673
2385,000000	50,759106
2384,000000	49,471777
2383,000000	47,818818
2382,000000	46,081771
2381,000000	44,314679
2380,000000	42,339628
2379,000000	40,034695
2378,000000	37,554101
2377,000000	35,204777
2376,000000	33,131642
2375,000000	31,212423
2374,000000	29,270534
2373,000000	27,323475
2372,000000	25,550971
2371,000000	24,063367
2370,000000	22,784037
2369,000000	21,575456
2368,000000	20,413275
2367,000000	19,387522
2366,000000	18,584735
2365,000000	17,999922
2364,000000	17,554337
2363,000000	17,178975
2362,000000	16,885800
2361,000000	16,773570
2360,000000	16,922025
2359,000000	17,287159
2358,000000	17,769684
2357,000000	18,385917
2356,000000	19,303313
2355,000000	20,653657
2354,000000	22,416827
2353,000000	24,561342
2352,000000	27,112777
2351,000000	29,853234
2350,000000	31,993765
2349,000000	32,518650
2348,000000	31,072363
2347,000000	28,424928
2346,000000	25,881722
2345,000000	24,258954
2344,000000	23,504862
2343,000000	23,152835
2342,000000	22,910260
2341,000000	22,771785
2340,000000	22,813436
2339,000000	23,020186
2338,000000	23,293351
2337,000000	23,521997
2336,000000	23,664305
2335,000000	23,769083
2334,000000	23,896778
2333,000000	24,031786
2332,000000	24,129634
2331,000000	24,258061
2330,000000	24,601033
2329,000000	25,256131
2328,000000	26,073597
2327,000000	26,765428
2326,000000	27,180588
2325,000000	27,446148
2324,000000	27,825935
2323,000000	28,468607
2322,000000	29,303410
2321,000000	30,185670
2320,000000	31,109077
2319,000000	32,200876
2318,000000	33,483545
2317,000000	34,723360
2316,000000	35,628375
2315,000000	36,190049
2314,000000	36,715578
2313,000000	37,484911
2312,000000	38,456548
2311,000000	39,380225
2310,000000	40,136138
2309,000000	40,868126
2308,000000	41,772790
2307,000000	42,830635
2306,000000	43,802442
2305,000000	44,491877
2304,000000	44,974357
2303,000000	45,508948
2302,000000	46,215003
2301,000000	46,912354
2300,000000	47,352718
2299,000000	47,564988
2298,000000	47,842929
2297,000000	48,368427
2296,000000	48,971942
2295,000000	49,354989
2294,000000	49,479291
2293,000000	49,613030
2292,000000	49,989081
2291,000000	50,521462
2290,000000	50,917823
2289,000000	51,039885
2288,000000	51,075193
2287,000000	51,311784
2286,000000	51,773059
2285,000000	52,159728
2284,000000	52,198892
2283,000000	51,984609
2282,000000	51,861774
2281,000000	51,989807
2280,000000	52,151476
2279,000000	52,061982
2278,000000	51,758003
2277,000000	51,555604
2276,000000	51,646929
2275,000000	51,865897
2274,000000	51,905122
2273,000000	51,694258
2272,000000	51,479761
2271,000000	51,520914
2270,000000	51,768355
2269,000000	51,917781
2268,000000	51,787041
2267,000000	51,555995
2266,000000	51,546881
2265,000000	51,806514
2264,000000	52,039343
2263,000000	51,988619
2262,000000	51,769732
2261,000000	51,714520
2260,000000	51,941162
2259,000000	52,211936
2258,000000	52,240310
2257,000000	52,045481
2256,000000	51,920435
2255,000000	52,068459
2254,000000	52,353456
2253,000000	52,463741
2252,000000	52,299109
2251,000000	52,106744
2250,000000	52,174151
2249,000000	52,455784
2248,000000	52,622694
2247,000000	52,488426
2246,000000	52,255080
2245,000000	52,247811
2244,000000	52,494345
2243,000000	52,697582
2242,000000	52,621087
2241,000000	52,382449
2240,000000	52,295917
2239,000000	52,481704
2238,000000	52,720513
2237,000000	52,723769
2236,000000	52,492663
2235,000000	52,325053
2234,000000	52,445721
2233,000000	52,712340
2232,000000	52,788993
2231,000000	52,581528
2230,000000	52,365088
2229,000000	52,425983
2228,000000	52,687550
2227,000000	52,816466
2226,000000	52,655020
2225,000000	52,413784
2224,000000	52,396095
2223,000000	52,618031
2222,000000	52,796868
2221,000000	52,702943
2220,000000	52,444008
2219,000000	52,337795
2218,000000	52,515212
2217,000000	52,746578
2216,000000	52,725633
2215,000000	52,467158
2214,000000	52,297366
2213,000000	52,428879
2212,000000	52,681927
2211,000000	52,721504
2210,000000	52,492862
2209,000000	52,285039
2208,000000	52,351135
2207,000000	52,594206
2206,000000	52,699262
2205,000000	52,527544
2204,000000	52,286441
2203,000000	52,272081
2202,000000	52,499975
2201,000000	52,676579
2200,000000	52,564725
2199,000000	52,296519
2198,000000	52,211531
2197,000000	52,416061
2196,000000	52,638203
2195,000000	52,582681
2194,000000	52,317868
2193,000000	52,179263
2192,000000	52,332287
2191,000000	52,568032
2190,000000	52,580029
2189,000000	52,348688
2188,000000	52,157402
2187,000000	52,239231
2186,000000	52,486602
2185,000000	52,580116
2184,000000	52,389174
2183,000000	52,145720
2182,000000	52,157840
2181,000000	52,406663
2180,000000	52,560244
2179,000000	52,408224
2178,000000	52,138626
2177,000000	52,090279
2176,000000	52,308943
2175,000000	52,496885
2174,000000	52,404838
2173,000000	52,141700
2172,000000	52,026237
2171,000000	52,185778
2170,000000	52,403788
2169,000000	52,391400
2168,000000	52,148314
2167,000000	51,972023
2166,000000	52,083399
2165,000000	52,333645
2164,000000	52,385432
2163,000000	52,153874
2162,000000	51,927666
2161,000000	51,990110
2160,000000	52,244925
2159,000000	52,348290
2158,000000	52,159353
2157,000000	51,914058
2156,000000	51,910921
2155,000000	52,134926
2154,000000	52,288418
2153,000000	52,165103
2152,000000	51,906902
2151,000000	51,827498
2150,000000	52,019192
2149,000000	52,226854
2148,000000	52,163795
2147,000000	51,891177
2146,000000	51,747534
2145,000000	51,907954
2144,000000	52,147607
2143,000000	52,137904
2142,000000	51,880501
2141,000000	51,695802
2140,000000	51,799567
2139,000000	52,031631
2138,000000	52,074168
2137,000000	51,857729
2136,000000	51,641797
2135,000000	51,688310
2134,000000	51,932088
2133,000000	52,054490
2132,000000	51,884334
2131,000000	51,622872
2130,000000	51,595838
2129,000000	51,825478
2128,000000	51,993908
2127,000000	51,862111
2126,000000	51,586975
2125,000000	51,512456
2124,000000	51,714757
2123,000000	51,911961
2122,000000	51,837880
2121,000000	51,577450
2120,000000	51,448641
2119,000000	51,596885
2118,000000	51,814463
2117,000000	51,802710
2116,000000	51,548705
2115,000000	51,356438
2114,000000	51,462344
2113,000000	51,722225
2112,000000	51,787597
2111,000000	51,561406
2110,000000	51,332617
2109,000000	51,389514
2108,000000	51,639527
2107,000000	51,740029
2106,000000	51,552440
2105,000000	51,313929
2104,000000	51,317991
2103,000000	51,543906
2102,000000	51,692128
2101,000000	51,562062
2100,000000	51,303943
2099,000000	51,233353
2098,000000	51,432806
2097,000000	51,634913
2096,000000	51,559049
2095,000000	51,286152
2094,000000	51,158705
2093,000000	51,322582
2092,000000	51,527094
2091,000000	51,467072
2090,000000	51,198536
2089,000000	51,057568
2088,000000	51,215653
2087,000000	51,464295
2086,000000	51,491779
2085,000000	51,270868
2084,000000	51,077121
2083,000000	51,145827
2082,000000	51,379620
2081,000000	51,463158
2080,000000	51,261565
2079,000000	51,008104
2078,000000	51,018522
2077,000000	51,268987
2076,000000	51,413709
2075,000000	51,248269
2074,000000	50,988234
2073,000000	50,974775
2072,000000	51,212432
2071,000000	51,376395
2070,000000	51,249578
2069,000000	50,983285
2068,000000	50,875402
2067,000000	50,992498
2066,000000	51,117991
2065,000000	51,046850
2064,000000	50,847983
2063,000000	50,784921
2062,000000	50,976806
2061,000000	51,218238
2060,000000	51,214403
2059,000000	50,967936
2058,000000	50,800636
2057,000000	50,933262
2056,000000	51,184142
2055,000000	51,210725
2054,000000	50,970193
2053,000000	50,772608
2052,000000	50,860916
2051,000000	51,101570
2050,000000	51,172572
2049,000000	50,975044
2048,000000	50,749834
2047,000000	50,768094
2046,000000	50,989528
2045,000000	51,100625
2044,000000	50,906661
2043,000000	50,602759
2042,000000	50,546404
2041,000000	50,794844
2040,000000	51,018059
2039,000000	50,934917
2038,000000	50,688648
2037,000000	50,635599
2036,000000	50,851563
2035,000000	51,038156
2034,000000	50,939679
2033,000000	50,680135
2032,000000	50,583382
2031,000000	50,753099
2030,000000	50,952035
2029,000000	50,908908
2028,000000	50,659478
2027,000000	50,505444
2026,000000	50,635674
2025,000000	50,870896
2024,000000	50,883043
2023,000000	50,632960
2022,000000	50,431857
2021,000000	50,508971
2020,000000	50,675069
2019,000000	50,584538
2018,000000	50,242291
2017,000000	50,034086
2016,000000	50,225499
2015,000000	50,612344
2014,000000	50,784631
2013,000000	50,622391
2012,000000	50,397708
2011,000000	50,407517
2010,000000	50,617315
2009,000000	50,732659
2008,000000	50,580529
2007,000000	50,337428
2006,000000	50,314271
2005,000000	50,544727
2004,000000	50,719177
2003,000000	50,585412
2002,000000	50,298511
2001,000000	50,220058
2000,000000	50,422747
1999,000000	50,599692
1998,000000	50,497783
1997,000000	50,248635
1996,000000	50,134066
1995,000000	50,156732
1994,000000	50,052977
1993,000000	49,711815
1992,000000	49,392220
1991,000000	49,426130
1990,000000	49,802523
1989,000000	50,167684
1988,000000	50,224569
1987,000000	50,048031
1986,000000	49,956426
1985,000000	50,115008
1984,000000	50,344643
1983,000000	50,354575
1982,000000	50,118305
1981,000000	49,920139
1980,000000	49,997476
1979,000000	50,227149
1978,000000	50,278137
1977,000000	50,053117
1976,000000	49,827003
1975,000000	49,880307
1974,000000	50,119054
1973,000000	50,201994
1972,000000	49,993449
1971,000000	49,710463
1970,000000	49,591305
1969,000000	49,586524
1968,000000	49,495317
1967,000000	49,307686
1966,000000	49,246147
1965,000000	49,461115
1964,000000	49,801466
1963,000000	49,955836
1962,000000	49,796421
1961,000000	49,528830
1960,000000	49,467777
1959,000000	49,664378
1958,000000	49,829708
1957,000000	49,700252
1956,000000	49,406635
1955,000000	49,323940
1954,000000	49,556758
1953,000000	49,781869
1952,000000	49,694421
1951,000000	49,421348
1950,000000	49,313778
1949,000000	49,450209
1948,000000	49,559204
1947,000000	49,390211
1946,000000	48,973373
1945,000000	48,520543
1944,000000	48,225622
1943,000000	48,176828
1942,000000	48,340773
1941,000000	48,605695
1940,000000	48,896065
1939,000000	49,202865
1938,000000	49,449446
1937,000000	49,460006
1936,000000	49,211255
1935,000000	48,987625
1934,000000	49,062748
1933,000000	49,303189
1932,000000	49,338314
1931,000000	49,095763
1930,000000	48,901787
1929,000000	49,002541
1928,000000	49,221972
1927,000000	49,197535
1926,000000	48,800471
1925,000000	48,257242
1924,000000	47,941263
1923,000000	48,028019
1922,000000	48,249300
1921,000000	48,089932
1920,000000	47,419411
1919,000000	46,798309
1918,000000	46,871457
1917,000000	47,547887
1916,000000	48,161438
1915,000000	48,379618
1914,000000	48,476072
1913,000000	48,646037
1912,000000	48,609747
1911,000000	48,175898
1910,000000	47,735123
1909,000000	47,778418
1908,000000	48,193165
1907,000000	48,455543
1906,000000	48,358047
1905,000000	48,180438
1904,000000	48,205083
1903,000000	48,379579
1902,000000	48,474363
1901,000000	48,368705
1900,000000	48,154818
1899,000000	48,031902
1898,000000	48,059172
1897,000000	48,031383
1896,000000	47,762035
1895,000000	47,459165
1894,000000	47,500459
1893,000000	47,774156
1892,000000	47,678439
1891,000000	46,996358
1890,000000	46,368374
1889,000000	46,506537
1888,000000	47,244075
1887,000000	47,800667
1886,000000	47,799362
1885,000000	47,575306
1884,000000	47,549758
1883,000000	47,734473
1882,000000	47,881677
1881,000000	47,824935
1880,000000	47,612727
1879,000000	47,466388
1878,000000	47,565536
1877,000000	47,777297
1876,000000	47,763185
1875,000000	47,479182
1874,000000	47,270528
1873,000000	47,221074
1872,000000	46,794906
1871,000000	45,590301
1870,000000	44,202506
1869,000000	43,726163
1868,000000	44,463736
1867,000000	45,641501
1866,000000	46,427758
1865,000000	46,731990
1864,000000	46,892599
1863,000000	47,065510
1862,000000	47,157380
1861,000000	47,085178
1860,000000	46,893053
1859,000000	46,742147
1858,000000	46,809070
1857,000000	47,045635
1856,000000	47,128519
1855,000000	46,885779
1854,000000	46,634088
1853,000000	46,743094
1852,000000	46,991743
1851,000000	46,846662
1850,000000	46,307945
1849,000000	45,885609
1848,000000	45,633821
1847,000000	44,876430
1846,000000	43,301479
1845,000000	41,819513
1844,000000	41,738787
1843,000000	43,235522
1842,000000	45,117180
1841,000000	46,127750
1840,000000	46,106813
1839,000000	45,789004
1838,000000	45,767786
1837,000000	45,956395
1836,000000	46,001744
1835,000000	45,847882
1834,000000	45,633167
1833,000000	45,213411
1832,000000	44,282006
1831,000000	43,078816
1830,000000	42,465584
1829,000000	42,915356
1828,000000	43,762028
1827,000000	43,995002
1826,000000	43,561185
1825,000000	43,338188
1824,000000	43,886542
1823,000000	44,808094
1822,000000	45,420552
1821,000000	45,517264
1820,000000	45,309268
1819,000000	45,057096
1818,000000	44,967163
1817,000000	45,110181
1816,000000	45,266150
1815,000000	45,114351
1814,000000	44,672951
1813,000000	44,268035
1812,000000	44,040436
1811,000000	43,849068
1810,000000	43,703732
1809,000000	43,860177
1808,000000	44,329076
1807,000000	44,698488
1806,000000	44,626955
1805,000000	44,200131
1804,000000	43,645008
1803,000000	43,039809
1802,000000	42,472370
1801,000000	42,153561
1800,000000	42,195841
1799,000000	42,512543
1798,000000	42,981706
1797,000000	43,364632
1796,000000	43,112739
1795,000000	41,811316
1794,000000	39,985795
1793,000000	38,889398
1792,000000	39,243383
1791,000000	40,566698
1790,000000	41,942867
1789,000000	42,904799
1788,000000	43,323995
1787,000000	43,098485
1786,000000	42,440214
1785,000000	41,985766
1784,000000	42,085936
1783,000000	42,334166
1782,000000	42,224039
1781,000000	41,918954
1780,000000	41,897928
1779,000000	42,191737
1778,000000	42,435550
1777,000000	42,319041
1776,000000	41,551736
1775,000000	39,861021
1774,000000	37,645854
1773,000000	36,189732
1772,000000	36,439940
1771,000000	37,784486
1770,000000	38,835517
1769,000000	39,217788
1768,000000	39,749162
1767,000000	40,863996
1766,000000	41,793494
1765,000000	41,629285
1764,000000	40,512717
1763,000000	39,406192
1762,000000	39,064458
1761,000000	39,493366
1760,000000	40,113086
1759,000000	40,277188
1758,000000	39,909601
1757,000000	39,644515
1756,000000	39,982831
1755,000000	40,420560
1754,000000	39,931986
1753,000000	38,356006
1752,000000	36,708953
1751,000000	35,970250
1750,000000	36,174327
1749,000000	36,858600
1748,000000	37,742006
1747,000000	38,575965
1746,000000	38,949549
1745,000000	38,775937
1744,000000	38,510459
1743,000000	38,381082
1742,000000	37,922650
1741,000000	36,929979
1740,000000	36,301593
1739,000000	36,923105
1738,000000	37,872076
1737,000000	37,062818
1736,000000	34,011516
1735,000000	30,965153
1734,000000	30,519230
1733,000000	32,724366
1732,000000	35,425473
1731,000000	36,972593
1730,000000	37,615703
1729,000000	38,281845
1728,000000	39,052041
1727,000000	39,374737
1726,000000	39,112313
1725,000000	38,731101
1724,000000	38,652450
1723,000000	38,766524
1722,000000	38,507041
1721,000000	37,203287
1720,000000	34,711867
1719,000000	31,933588
1718,000000	30,338650
1717,000000	30,625726
1716,000000	32,134342
1715,000000	33,832959
1714,000000	35,397425
1713,000000	36,850955
1712,000000	37,796413
1711,000000	37,836966
1710,000000	37,365939
1709,000000	36,978506
1708,000000	36,425689
1707,000000	35,243453
1706,000000	34,130376
1705,000000	34,185126
1704,000000	34,686219
1703,000000	33,423973
1702,000000	29,977309
1701,000000	27,059260
1700,000000	27,192805
1699,000000	29,314808
1698,000000	30,402071
1697,000000	29,678054
1696,000000	29,342474
1695,000000	31,150112
1694,000000	34,113069
1693,000000	36,097164
1692,000000	36,349650
1691,000000	35,765836
1690,000000	35,371599
1689,000000	35,249827
1688,000000	34,546515
1687,000000	32,358325
1686,000000	29,054567
1685,000000	26,608407
1684,000000	26,861506
1683,000000	29,445023
1682,000000	32,201206
1681,000000	33,738132
1680,000000	34,430010
1679,000000	34,768883
1678,000000	34,185853
1677,000000	32,381942
1676,000000	30,671670
1675,000000	30,616980
1674,000000	31,869097
1673,000000	32,557510
1672,000000	31,724917
1671,000000	30,307806
1670,000000	29,706892
1669,000000	30,329232
1668,000000	31,665355
1667,000000	32,968035
1666,000000	33,526182
1665,000000	32,949757
1664,000000	31,690702
1663,000000	30,876517
1662,000000	31,193970
1661,000000	32,188313
1660,000000	32,928962
1659,000000	33,026209
1658,000000	32,553746
1657,000000	31,199506
1656,000000	28,330479
1655,000000	24,240281
1654,000000	20,853608
1653,000000	20,388729
1652,000000	23,094358
1651,000000	26,727871
1650,000000	28,550686
1649,000000	27,786151
1648,000000	25,925210
1647,000000	24,940208
1646,000000	25,584510
1645,000000	27,251267
1644,000000	28,861937
1643,000000	29,728189
1642,000000	29,839064
1641,000000	29,590404
1640,000000	29,133209
1639,000000	28,064700
1638,000000	26,081020
1637,000000	23,857913
1636,000000	22,774166
1635,000000	23,543267
1634,000000	25,463264
1633,000000	27,227676
1632,000000	28,088075
1631,000000	28,058316
1630,000000	27,462235
1629,000000	26,722957
1628,000000	26,272977
1627,000000	26,174141
1626,000000	25,950500
1625,000000	25,224524
1624,000000	24,406678
1623,000000	24,308540
1622,000000	25,063062
1621,000000	25,786509
1620,000000	25,460897
1619,000000	23,974857
1618,000000	22,231670
1617,000000	21,382031
1616,000000	21,894319
1615,000000	23,223642
1614,000000	24,356032
1613,000000	24,713860
1612,000000	24,486003
1611,000000	24,132614
1610,000000	23,833314
1609,000000	23,568270
1608,000000	23,410526
1607,000000	23,425655
1606,000000	23,447969
1605,000000	23,282413
1604,000000	23,026234
1603,000000	22,910846
1602,000000	22,915513
1601,000000	22,832035
1600,000000	22,642546
1599,000000	22,514457
1598,000000	22,452438
1597,000000	22,273046
1596,000000	21,954358
1595,000000	21,711559
1594,000000	21,655018
1593,000000	21,627364
1592,000000	21,473927
1591,000000	21,261650
1590,000000	21,118217
1589,000000	21,026490
1588,000000	20,893519
1587,000000	20,706013
1586,000000	20,515099
1585,000000	20,340883
1584,000000	20,167358
1583,000000	19,990423
1582,000000	19,824051
1581,000000	19,630966
1580,000000	19,235689
1579,000000	18,371669
1578,000000	17,027010
1577,000000	15,771177
1576,000000	15,448144
1575,000000	16,283760
1574,000000	17,452992
1573,000000	17,837886
1572,000000	17,165971
1571,000000	16,159755
1570,000000	15,639026
1569,000000	15,771880
1568,000000	16,174385
1567,000000	16,436832
1566,000000	16,429527
1565,000000	16,274719
1564,000000	16,068970
1563,000000	15,559976
1562,000000	14,270810
1561,000000	12,220512
1560,000000	10,377090
1559,000000	9,917592
1558,000000	10,963768
1557,000000	12,462507
1556,000000	13,427249
1555,000000	13,866072
1554,000000	14,288402
1553,000000	14,791015
1552,000000	15,075073
1551,000000	15,093504
1550,000000	15,129495
1549,000000	15,287020
1548,000000	15,307508
1547,000000	14,971186
1546,000000	14,376103
1545,000000	13,728980
1544,000000	13,065418
1543,000000	12,285489
1542,000000	11,386025
1541,000000	10,628021
1540,000000	10,491405
1539,000000	11,308864
1538,000000	12,779227
1537,000000	13,984585
1536,000000	14,179589
1535,000000	13,563657
1534,000000	13,022133
1533,000000	13,126267
1532,000000	13,632116
1531,000000	13,977427
1530,000000	13,915802
1529,000000	13,550096
1528,000000	13,045505
1527,000000	12,559203
1526,000000	12,232281
1525,000000	11,997729
1524,000000	11,556980
1523,000000	10,800652
1522,000000	10,126962
1521,000000	10,028009
1520,000000	10,428962
1519,000000	10,758175
1518,000000	10,697828
1517,000000	10,524523
1516,000000	10,593948
1515,000000	10,808945
1514,000000	10,827010
1513,000000	10,585066
1512,000000	10,295201
1511,000000	10,005369
1510,000000	9,471352
1509,000000	8,555818
1508,000000	7,563945
1507,000000	7,042641
1506,000000	7,288170
1505,000000	8,093255
1504,000000	8,930722
1503,000000	9,354707
1502,000000	9,272217
1501,000000	8,884131
1500,000000	8,410815
1499,000000	7,924899
1498,000000	7,459288
1497,000000	7,152700
1496,000000	7,157641
1495,000000	7,409328
1494,000000	7,619254
1493,000000	7,551674
1492,000000	7,249174
1491,000000	6,947786
1490,000000	6,829998
1489,000000	6,906726
1488,000000	7,095281
1487,000000	7,326634
1486,000000	7,560836
1485,000000	7,744212
1484,000000	7,815327
1483,000000	7,773240
1482,000000	7,702149
1481,000000	7,678031
1480,000000	7,661692
1479,000000	7,546264
1478,000000	7,307487
1477,000000	7,026074
1476,000000	6,746894
1475,000000	6,422462
1474,000000	6,064869
1473,000000	5,844862
1472,000000	5,925162
1471,000000	6,236405
1470,000000	6,527083
1469,000000	6,605963
1468,000000	6,452951
1467,000000	6,148121
1466,000000	5,811200
1465,000000	5,589414
1464,000000	5,562998
1463,000000	5,637572
1462,000000	5,608283
1461,000000	5,350525
1460,000000	4,888857
1459,000000	4,331554
1458,000000	3,834930
1457,000000	3,587776
1456,000000	3,671313
1455,000000	3,922675
1454,000000	4,064122
1453,000000	3,990425
1452,000000	3,819577
1451,000000	3,657882
1450,000000	3,476571
1449,000000	3,251092
1448,000000	3,064093
1447,000000	2,978924
1446,000000	2,930566
1445,000000	2,832928
1444,000000	2,702474
1443,000000	2,596651
1442,000000	2,506614
1441,000000	2,390671
1440,000000	2,244539
1439,000000	2,080114
1438,000000	1,901354
1437,000000	1,753887
1436,000000	1,716711
1435,000000	1,787781
1434,000000	1,852996
1433,000000	1,830411
1432,000000	1,767660
1431,000000	1,740741
1430,000000	1,743551
1429,000000	1,741561
1428,000000	1,751420
1427,000000	1,787296
1426,000000	1,807153
1425,000000	1,787651
1424,000000	1,780841
1423,000000	1,815380
1422,000000	1,820937
1421,000000	1,740249
1420,000000	1,646436
1419,000000	1,650017
1418,000000	1,741068
1417,000000	1,825472
1416,000000	1,864802
1415,000000	1,886332
1414,000000	1,890666
1413,000000	1,853050
1412,000000	1,792874
1411,000000	1,753414
1410,000000	1,727302
1409,000000	1,675780
1408,000000	1,602572
1407,000000	1,539306
1406,000000	1,484525
1405,000000	1,421604
1404,000000	1,370338
1403,000000	1,351007
1402,000000	1,329081
1401,000000	1,263559
1400,000000	1,183665
1399,000000	1,143945
1398,000000	1,132780
1397,000000	1,098533
1396,000000	1,042764
1395,000000	1,012678
1394,000000	1,015989
1393,000000	1,017278
1392,000000	1,003304
1391,000000	0,987140
1390,000000	0,959152
1389,000000	0,901277
1388,000000	0,837498
1387,000000	0,808725
1386,000000	0,806168
1385,000000	0,788549
1384,000000	0,752333
1383,000000	0,726122
1382,000000	0,709783
1381,000000	0,677989
1380,000000	0,635617
1379,000000	0,609720
1378,000000	0,596161
1377,000000	0,567339
1376,000000	0,526702
1375,000000	0,502051
1374,000000	0,493960
1373,000000	0,479841
1372,000000	0,460107
1371,000000	0,452015
1370,000000	0,447996
1369,000000	0,428463
1368,000000	0,403944
1367,000000	0,398067
1366,000000	0,400002
1365,000000	0,382618
1364,000000	0,353458
1363,000000	0,341634
1362,000000	0,345058
1361,000000	0,339471
1360,000000	0,326738
1359,000000	0,326763
1358,000000	0,332761
1357,000000	0,321837
1356,000000	0,300540
1355,000000	0,292838
1354,000000	0,294646
1353,000000	0,283601
1352,000000	0,264573
1351,000000	0,259221
1350,000000	0,262303
1349,000000	0,251733
1348,000000	0,232855
1347,000000	0,227653
1346,000000	0,230997
1345,000000	0,220898
1344,000000	0,202174
1343,000000	0,196767
1342,000000	0,199868
1341,000000	0,189818
1340,000000	0,171210
1339,000000	0,166693
1338,000000	0,173552
1337,000000	0,170950
1336,000000	0,160838
1335,000000	0,161257
1334,000000	0,167767
1333,000000	0,161935
1332,000000	0,149342
1331,000000	0,149740
1330,000000	0,158560
1329,000000	0,156160
1328,000000	0,146508
1327,000000	0,148426
1326,000000	0,158017
1325,000000	0,157478
1324,000000	0,151763
1323,000000	0,158049
1322,000000	0,169870
1321,000000	0,168923
1320,000000	0,161395
1319,000000	0,165629
1318,000000	0,175142
1317,000000	0,171698
1316,000000	0,162418
1315,000000	0,166586
1314,000000	0,177028
1313,000000	0,173735
1312,000000	0,163272
1311,000000	0,166186
1310,000000	0,176041
1309,000000	0,171693
1308,000000	0,158480
1307,000000	0,157691
1306,000000	0,165420
1305,000000	0,161081
1304,000000	0,148457
1303,000000	0,147175
1302,000000	0,153700
1301,000000	0,148648
1300,000000	0,135989
1299,000000	0,134979
1298,000000	0,142095
1297,000000	0,138271
1296,000000	0,127023
1295,000000	0,127072
1294,000000	0,135044
1293,000000	0,132436
1292,000000	0,122411
1291,000000	0,123164
1290,000000	0,131122
1289,000000	0,127976
1288,000000	0,117063
1287,000000	0,116931
1286,000000	0,124898
1285,000000	0,123199
1284,000000	0,114705
1283,000000	0,116918
1282,000000	0,126554
1281,000000	0,125678
1280,000000	0,116959
1279,000000	0,117676
1278,000000	0,125247
1277,000000	0,122757
1276,000000	0,113611
1275,000000	0,115316
1274,000000	0,124827
1273,000000	0,124267
1272,000000	0,115868
1271,000000	0,116510
1270,000000	0,123966
1269,000000	0,121958
1268,000000	0,113363
1267,000000	0,114794
1266,000000	0,123350
1265,000000	0,122132
1264,000000	0,113368
1263,000000	0,113625
1262,000000	0,120730
1261,000000	0,118751
1260,000000	0,110232
1259,000000	0,111259
1258,000000	0,119147
1257,000000	0,117559
1256,000000	0,109063
1255,000000	0,109865
1254,000000	0,117521
1253,000000	0,115873
1252,000000	0,107140
1251,000000	0,107258
1250,000000	0,114430
1249,000000	0,113011
1248,000000	0,105041
1247,000000	0,105727
1246,000000	0,113594
1245,000000	0,113847
1244,000000	0,108146
1243,000000	0,110747
1242,000000	0,119235
1241,000000	0,119152
1240,000000	0,113062
1239,000000	0,115868
1238,000000	0,125157
1237,000000	0,126386
1236,000000	0,121966
1235,000000	0,125855
1234,000000	0,134567
1233,000000	0,133286
1232,000000	0,125380
1231,000000	0,126729
1230,000000	0,135188
1229,000000	0,135249
1228,000000	0,128371
1227,000000	0,128766
1226,000000	0,134414
1225,000000	0,131532
1224,000000	0,123290
1223,000000	0,124017
1222,000000	0,130615
1221,000000	0,127973
1220,000000	0,118629
1219,000000	0,117726
1218,000000	0,122917
1217,000000	0,119217
1216,000000	0,108879
1215,000000	0,107121
1214,000000	0,112432
1213,000000	0,110182
1212,000000	0,101932
1211,000000	0,101541
1210,000000	0,106545
1209,000000	0,102614
1208,000000	0,092354
1207,000000	0,091291
1206,000000	0,098316
1205,000000	0,098460
1204,000000	0,091831
1203,000000	0,091756
1202,000000	0,097330
1201,000000	0,095292
1200,000000	0,087227
1199,000000	0,086349
1198,000000	0,090983
1197,000000	0,087947
1196,000000	0,079382
1195,000000	0,078945
1194,000000	0,085236
1193,000000	0,084791
1192,000000	0,078330
1191,000000	0,078344
1190,000000	0,083693
1189,000000	0,081700
1188,000000	0,074014
1187,000000	0,074043
1186,000000	0,080200
1185,000000	0,079083
1184,000000	0,072055
1183,000000	0,071923
1182,000000	0,077320
1181,000000	0,075729
1180,000000	0,068761
1179,000000	0,069349
1178,000000	0,076107
1177,000000	0,075772
1176,000000	0,069146
1175,000000	0,068903
1174,000000	0,074146
1173,000000	0,072547
1172,000000	0,065543
1171,000000	0,065727
1170,000000	0,071955
1169,000000	0,071649
1168,000000	0,065675
1167,000000	0,066245
1166,000000	0,072397
1165,000000	0,071730
1164,000000	0,064803
1163,000000	0,063587
1162,000000	0,067700
1161,000000	0,066264
1160,000000	0,060554
1159,000000	0,061902
1158,000000	0,068395
1157,000000	0,067366
1156,000000	0,060271
1155,000000	0,059979
1154,000000	0,065969
1153,000000	0,066019
1152,000000	0,060573
1151,000000	0,060962
1150,000000	0,066034
1149,000000	0,064571
1148,000000	0,058094
1147,000000	0,058579
1146,000000	0,064773
1145,000000	0,064729
1144,000000	0,059360
1143,000000	0,059896
1142,000000	0,065379
1141,000000	0,064585
1140,000000	0,058811
1139,000000	0,059408
1138,000000	0,064705
1137,000000	0,062933
1136,000000	0,055605
1135,000000	0,054981
1134,000000	0,060528
1133,000000	0,060335
1132,000000	0,054797
1131,000000	0,055090
1130,000000	0,060342
1129,000000	0,059782
1128,000000	0,054609
1127,000000	0,055779
1126,000000	0,062231
1125,000000	0,062156
1124,000000	0,056240
1123,000000	0,055958
1122,000000	0,060763
1121,000000	0,059631
1120,000000	0,053301
1119,000000	0,053123
1118,000000	0,058576
1117,000000	0,058515
1116,000000	0,052618
1115,000000	0,051576
1114,000000	0,055802
1113,000000	0,055311
1112,000000	0,050573
1111,000000	0,051531
1110,000000	0,056902
1109,000000	0,056021
1108,000000	0,049975
1107,000000	0,048988
1106,000000	0,053175
1105,000000	0,052848
1104,000000	0,048151
1103,000000	0,048985
1102,000000	0,054269
1101,000000	0,053698
1100,000000	0,048598
1099,000000	0,049376
1098,000000	0,054867
1097,000000	0,054829
1096,000000	0,049624
1095,000000	0,050025
1094,000000	0,055638
1093,000000	0,055339
1092,000000	0,049074
1091,000000	0,047785
1090,000000	0,051922
1089,000000	0,051281
1088,000000	0,045996
1087,000000	0,045777
1086,000000	0,050200
1085,000000	0,049872
1084,000000	0,045445
1083,000000	0,046024
1082,000000	0,050926
1081,000000	0,050597
1080,000000	0,045847
1079,000000	0,046566
1078,000000	0,051952
1077,000000	0,051442
1076,000000	0,045650
1075,000000	0,045380
1074,000000	0,051055
1073,000000	0,052746
1072,000000	0,049443
1071,000000	0,049621
1070,000000	0,052945
1069,000000	0,050768
1068,000000	0,044567
1067,000000	0,044569
1066,000000	0,050350
1065,000000	0,051510
1064,000000	0,047439
1063,000000	0,047601
1062,000000	0,051923
1061,000000	0,051180
1060,000000	0,045663
1059,000000	0,045024
1058,000000	0,049668
1057,000000	0,050041
1056,000000	0,046212
1055,000000	0,047040
1054,000000	0,051921
1053,000000	0,051445
1052,000000	0,046153
1051,000000	0,045876
1050,000000	0,050871
1049,000000	0,051090
1048,000000	0,045668
1047,000000	0,044081
1046,000000	0,047393
1045,000000	0,047770
1044,000000	0,044946
1043,000000	0,046775
1042,000000	0,052326
1041,000000	0,052581
1040,000000	0,047706
1039,000000	0,047095
1038,000000	0,051891
1037,000000	0,053274
1036,000000	0,050038
1035,000000	0,050472
1034,000000	0,055328
1033,000000	0,056348
1032,000000	0,052863
1031,000000	0,052651
1030,000000	0,056101
1029,000000	0,055580
1028,000000	0,051620
1027,000000	0,052167
1026,000000	0,056638
1025,000000	0,056843
1024,000000	0,053040
1023,000000	0,053466
1022,000000	0,057747
1021,000000	0,057257
1020,000000	0,052248
1019,000000	0,051792
1018,000000	0,056159
1017,000000	0,056651
1016,000000	0,052906
1015,000000	0,053553
1014,000000	0,058493
1013,000000	0,058941
1012,000000	0,054753
1011,000000	0,054607
1010,000000	0,059059
1009,000000	0,059913
1008,000000	0,056839
1007,000000	0,057430
1006,000000	0,061644
1005,000000	0,061485
1004,000000	0,057098
1003,000000	0,056613
1002,000000	0,060196
1001,000000	0,059638
1000,000000	0,054645
999,000000	0,053867
998,000000	0,057700
997,000000	0,058004
996,000000	0,054403
995,000000	0,054515
994,000000	0,058870
993,000000	0,059646
992,000000	0,055844
991,000000	0,055504
990,000000	0,059138
989,000000	0,059093
988,000000	0,055135
987,000000	0,054790
986,000000	0,058171
985,000000	0,057657
984,000000	0,053259
983,000000	0,053203
982,000000	0,057499
981,000000	0,057559
980,000000	0,052771
979,000000	0,051324
978,000000	0,054667
977,000000	0,055109
976,000000	0,051513
975,000000	0,051480
974,000000	0,056036
973,000000	0,057580
972,000000	0,054695
971,000000	0,054225
970,000000	0,057099
969,000000	0,056666
968,000000	0,052422
967,000000	0,051455
966,000000	0,054256
965,000000	0,053974
964,000000	0,050540
963,000000	0,050770
962,000000	0,054643
961,000000	0,054733
960,000000	0,050711
959,000000	0,050058
958,000000	0,053304
957,000000	0,053339
956,000000	0,049749
955,000000	0,049344
954,000000	0,052307
953,000000	0,051797
952,000000	0,048219
951,000000	0,049053
950,000000	0,054135
949,000000	0,055121
948,000000	0,050860
947,000000	0,048972
946,000000	0,050773
945,000000	0,049584
944,000000	0,045225
943,000000	0,044725
942,000000	0,048153
941,000000	0,048163
940,000000	0,044428
939,000000	0,044395
938,000000	0,048196
937,000000	0,048597
936,000000	0,044877
935,000000	0,044207
934,000000	0,047315
933,000000	0,047233
932,000000	0,043744
931,000000	0,043975
930,000000	0,048044
929,000000	0,048606
928,000000	0,045392
927,000000	0,045517
926,000000	0,049504
925,000000	0,049625
924,000000	0,045180
923,000000	0,044271
922,000000	0,048012
921,000000	0,048923
920,000000	0,045416
919,000000	0,044553
918,000000	0,047575
917,000000	0,047878
916,000000	0,044507
915,000000	0,043732
914,000000	0,046277
913,000000	0,045999
912,000000	0,042306
911,000000	0,041893
910,000000	0,045442
909,000000	0,045653
908,000000	0,041300
907,000000	0,039727
906,000000	0,042846
905,000000	0,044500
904,000000	0,042833
903,000000	0,042942
902,000000	0,045568
901,000000	0,044999
900,000000	0,041502
899,000000	0,041378
898,000000	0,044755
897,000000	0,045155
896,000000	0,041841
895,000000	0,041102
894,000000	0,043814
893,000000	0,043648
892,000000	0,040156
891,000000	0,039383
890,000000	0,042086
889,000000	0,042262
888,000000	0,039553
887,000000	0,040528
886,000000	0,044601
885,000000	0,044594
884,000000	0,040299
883,000000	0,038830
882,000000	0,041305
881,000000	0,041331
880,000000	0,038134
879,000000	0,037991
878,000000	0,041725
877,000000	0,042892
876,000000	0,040527
875,000000	0,040092
874,000000	0,042226
873,000000	0,041275
872,000000	0,037262
871,000000	0,036915
870,000000	0,040478
869,000000	0,041154
868,000000	0,037914
867,000000	0,036956
866,000000	0,039486
865,000000	0,039671
864,000000	0,037155
863,000000	0,037746
862,000000	0,041136
861,000000	0,040663
860,000000	0,036230
859,000000	0,035384
858,000000	0,039045
857,000000	0,040339
856,000000	0,037674
855,000000	0,037524
854,000000	0,041321
853,000000	0,042409
852,000000	0,039230
851,000000	0,037941
850,000000	0,040559
849,000000	0,041433
848,000000	0,038598
847,000000	0,037551
846,000000	0,039572
845,000000	0,039240
844,000000	0,035972
843,000000	0,035474
842,000000	0,038640
841,000000	0,039455
840,000000	0,036687
839,000000	0,036281
838,000000	0,039325
837,000000	0,040461
836,000000	0,038631
835,000000	0,038702
834,000000	0,041291
833,000000	0,041284
832,000000	0,038116
831,000000	0,037146
830,000000	0,038667
829,000000	0,037326
828,000000	0,033228
827,000000	0,032537
826,000000	0,035600
825,000000	0,035634
824,000000	0,031679
823,000000	0,030335
822,000000	0,033470
821,000000	0,035505
820,000000	0,034250
819,000000	0,034465
818,000000	0,037254
817,000000	0,037559
816,000000	0,034853
815,000000	0,034326
814,000000	0,036801
813,000000	0,036932
812,000000	0,033860
811,000000	0,033438
810,000000	0,036579
809,000000	0,037192
808,000000	0,033980
807,000000	0,032612
806,000000	0,034974
805,000000	0,035841
804,000000	0,033542
803,000000	0,033183
802,000000	0,035805
801,000000	0,036503
800,000000	0,034756
799,000000	0,034937
798,000000	0,037382
797,000000	0,037807
796,000000	0,035441
795,000000	0,035134
794,000000	0,037500
793,000000	0,037414
792,000000	0,034560
791,000000	0,034348
790,000000	0,037346
789,000000	0,037824
788,000000	0,034453
787,000000	0,033271
786,000000	0,035729
785,000000	0,036285
784,000000	0,034230
783,000000	0,034860
782,000000	0,038418
781,000000	0,038966
780,000000	0,035024
779,000000	0,032857
778,000000	0,034881
777,000000	0,035646
776,000000	0,033559
775,000000	0,033229
774,000000	0,035874
773,000000	0,036909
772,000000	0,034561
771,000000	0,033640
770,000000	0,035695
769,000000	0,036036
768,000000	0,033388
767,000000	0,032654
766,000000	0,035002
765,000000	0,035262
764,000000	0,031999
763,000000	0,030697
762,000000	0,033181
761,000000	0,034530
760,000000	0,032913
759,000000	0,032820
758,000000	0,035634
757,000000	0,036419
756,000000	0,033769
755,000000	0,032587
754,000000	0,034699
753,000000	0,035724
752,000000	0,034037
751,000000	0,033850
750,000000	0,036246
749,000000	0,036748
748,000000	0,034102
747,000000	0,032676
746,000000	0,033995
745,000000	0,034821
744,000000	0,033691
743,000000	0,033622
742,000000	0,035241
741,000000	0,034857
740,000000	0,032392
739,000000	0,032639
738,000000	0,036113
737,000000	0,037482
736,000000	0,035130
735,000000	0,034035
734,000000	0,035940
733,000000	0,036533
732,000000	0,034095
731,000000	0,032673
730,000000	0,033675
729,000000	0,033597
728,000000	0,031432
727,000000	0,031120
726,000000	0,033145
725,000000	0,032969
724,000000	0,030144
723,000000	0,029968
722,000000	0,032823
721,000000	0,033527
720,000000	0,030889
719,000000	0,029985
718,000000	0,032402
717,000000	0,033333
716,000000	0,031335
715,000000	0,030805
714,000000	0,033021
713,000000	0,033964
712,000000	0,031958
711,000000	0,031118
710,000000	0,033227
709,000000	0,034039
708,000000	0,031947
707,000000	0,031062
706,000000	0,032865
705,000000	0,033308
704,000000	0,031183
703,000000	0,030418
702,000000	0,031896
701,000000	0,032014
700,000000	0,029638
699,000000	0,028615
698,000000	0,029870
697,000000	0,029020
696,000000	0,025716
695,000000	0,024952
694,000000	0,028053
693,000000	0,030281
692,000000	0,028731
691,000000	0,027180
690,000000	0,027754
689,000000	0,027406
688,000000	0,025282
687,000000	0,025041
686,000000	0,027240
685,000000	0,027218
684,000000	0,024043
683,000000	0,023011
682,000000	0,025951
681,000000	0,028036
680,000000	0,026976
679,000000	0,026458
678,000000	0,028173
677,000000	0,028396
676,000000	0,026894
675,000000	0,026390
674,000000	0,026538
673,000000	0,025352
672,000000	0,021734
671,000000	0,019008
670,000000	0,018071
669,000000	0,016027
668,000000	0,014417
667,000000	0,016120
666,000000	0,020882
665,000000	0,023940
664,000000	0,022131
663,000000	0,020878
662,000000	0,023213
661,000000	0,025052
660,000000	0,023871
659,000000	0,022648
658,000000	0,023089
657,000000	0,022532
656,000000	0,020287
655,000000	0,020005
654,000000	0,022840
653,000000	0,024860
652,000000	0,023619
651,000000	0,022406
650,000000	0,023152
649,000000	0,023490
648,000000	0,022110
647,000000	0,022187
646,000000	0,024523
645,000000	0,025434
644,000000	0,023993
643,000000	0,023991
642,000000	0,025915
641,000000	0,026296
640,000000	0,024010
639,000000	0,022500
638,000000	0,023017
637,000000	0,022457
636,000000	0,020028
635,000000	0,019022
634,000000	0,020915
633,000000	0,022161
632,000000	0,020986
631,000000	0,021404
630,000000	0,024455
629,000000	0,025729
628,000000	0,023504
627,000000	0,021743
626,000000	0,022410
625,000000	0,022330
624,000000	0,020236
623,000000	0,019674
622,000000	0,021779
621,000000	0,022683
620,000000	0,020769
619,000000	0,019819
618,000000	0,021750
617,000000	0,022704
616,000000	0,020600
615,000000	0,018801
614,000000	0,019004
613,000000	0,018885
612,000000	0,017147
611,000000	0,016267
610,000000	0,017884
609,000000	0,018977
608,000000	0,017815
607,000000	0,017643
606,000000	0,019412
605,000000	0,020809
604,000000	0,023267
603,000000	0,024214
602,000000	0,020779
601,000000	0,017673
600,000000	0,015606
599,000000	0,015669
598,000000	0,018151
597,000000	0,019570
596,000000	0,017910
595,000000	0,017031
594,000000	0,018330
593,000000	0,018632
592,000000	0,016541
591,000000	0,015748
590,000000	0,017943
589,000000	0,019340
588,000000	0,018129
587,000000	0,017406
586,000000	0,018054
585,000000	0,017306
584,000000	0,014931
583,000000	0,014434
582,000000	0,015906
581,000000	0,016658
580,000000	0,014605
579,000000	0,012764
578,000000	0,013686
577,000000	0,015020
576,000000	0,014488
575,000000	0,014391
574,000000	0,015821
573,000000	0,015879
572,000000	0,013747
571,000000	0,012382
570,000000	0,012721
569,000000	0,013873
568,000000	0,013642
567,000000	0,013261
566,000000	0,013337
565,000000	0,012312
564,000000	0,009348
563,000000	0,007939
562,000000	0,009971
561,000000	0,012009
560,000000	0,011545
559,000000	0,011709
558,000000	0,013813
557,000000	0,014856
556,000000	0,014087
555,000000	0,013763
554,000000	0,014031
553,000000	0,013585
552,000000	0,011365
551,000000	0,009945
550,000000	0,011419
549,000000	0,013816
548,000000	0,014104
547,000000	0,014417
546,000000	0,015688
545,000000	0,015472
544,000000	0,013396
543,000000	0,012185
542,000000	0,012964
541,000000	0,012897
540,000000	0,010964
539,000000	0,010475
538,000000	0,011378
537,000000	0,012421
536,000000	0,011151
535,000000	0,008894
534,000000	0,008376
533,000000	0,009506
532,000000	0,008645
531,000000	0,008100
530,000000	0,009580
529,000000	0,010761
528,000000	0,010391
527,000000	0,009330
526,000000	0,008763
525,000000	0,008572
524,000000	0,007127
523,000000	0,006258
522,000000	0,007694
521,000000	0,009136
520,000000	0,008084
519,000000	0,007036
518,000000	0,008043
517,000000	0,009609
516,000000	0,010106
515,000000	0,010710
514,000000	0,011760
513,000000	0,011762
512,000000	0,010150
511,000000	0,009944
510,000000	0,010963
509,000000	0,011732
508,000000	0,011310
507,000000	0,009965
506,000000	0,008089
505,000000	0,006188
504,000000	0,003265
503,000000	0,002615
502,000000	0,006184
501,000000	0,009106
500,000000	0,009762
499,000000	0,010073
498,000000	0,010088
497,000000	0,008656
496,000000	0,006487
495,000000	0,005691
494,000000	0,005261
493,000000	0,003579
492,000000	0,002665
491,000000	0,009842
490,000000	0,013554
489,000000	0,014282
488,000000	0,013503
487,000000	0,013616
486,000000	0,014649
485,000000	0,012680
484,000000	0,005655
483,000000	0,003824
482,000000	0,009694
481,000000	0,013196
480,000000	0,012494
479,000000	0,008516
478,000000	0,011716
477,000000	0,019027
476,000000	0,022769
475,000000	0,024400
474,000000	0,025887
473,000000	0,025929
472,000000	0,027728
471,000000	0,031243
470,000000	0,030466
469,000000	0,025090
468,000000	0,019739
467,000000	0,015108
466,000000	0,008588
465,000000	0,005829
464,000000	0,006315
463,000000	0,007113
462,000000	0,011559
461,000000	0,015939
460,000000	0,018639
459,000000	0,020826
458,000000	0,021238
457,000000	0,019162
456,000000	0,016787
455,000000	0,015254
454,000000	0,013515
453,000000	0,013981
452,000000	0,015582
451,000000	0,012629
450,000000	0,005729
449,000000	0,005831
448,000000	0,007912
447,000000	0,010820
446,000000	0,015005
445,000000	0,015924
444,000000	0,013187
443,000000	0,011719
442,000000	0,011191
441,000000	0,010653
440,000000	0,010807
439,000000	0,008706
438,000000	0,004552
437,000000	0,004069
436,000000	0,003874
435,000000	0,005245
434,000000	0,009190
433,000000	0,010592
432,000000	0,008045
431,000000	0,006976
430,000000	0,009687
429,000000	0,013324
428,000000	0,016219
427,000000	0,016804
426,000000	0,014431
425,000000	0,011655
424,000000	0,010263
423,000000	0,008481
422,000000	0,005154
421,000000	0,006384
420,000000	0,008624
419,000000	0,006095
418,000000	0,003831
417,000000	0,009404
416,000000	0,010973
415,000000	0,011355
414,000000	0,012172
413,000000	0,011801
412,000000	0,012272
411,000000	0,013097
410,000000	0,010434
409,000000	0,008243
408,000000	0,008382
407,000000	0,006395
406,000000	0,002255
405,000000	0,006788
404,000000	0,007926
403,000000	0,008359
402,000000	0,009537
401,000000	0,008670
400,000000	0,007548
399,000000	0,009887
398,000000	0,012563
397,000000	0,015000
396,000000	0,016895
395,000000	0,016099
394,000000	0,011485
393,000000	0,006815
392,000000	0,006586
391,000000	0,008127
390,000000	0,008652
389,000000	0,008503
388,000000	0,005637
387,000000	0,007664
386,000000	0,014980
385,000000	0,019236
384,000000	0,018619
383,000000	0,017582
382,000000	0,016495
381,000000	0,016329
380,000000	0,019038
379,000000	0,019985
378,000000	0,015892
377,000000	0,010764
376,000000	0,007123
375,000000	0,002343
374,000000	0,009034
373,000000	0,015474
372,000000	0,016157
371,000000	0,016518
370,000000	0,018676
369,000000	0,019705
368,000000	0,020635
367,000000	0,022604
366,000000	0,021718
365,000000	0,020092
364,000000	0,019588
363,000000	0,015237
362,000000	0,007732
361,000000	0,012280
360,000000	0,018119
359,000000	0,022555
358,000000	0,027540
357,000000	0,029542
356,000000	0,028347
355,000000	0,028226
354,000000	0,027885
353,000000	0,026727
352,000000	0,026358
351,000000	0,024461
350,000000	0,020553
349,000000	0,018985
348,000000	0,016890
347,000000	0,013174
346,000000	0,015137
345,000000	0,019612
344,000000	0,020406
343,000000	0,020287
342,000000	0,019525
341,000000	0,018093
340,000000	0,017593
339,000000	0,016280
338,000000	0,011411
337,000000	0,007258
336,000000	0,006347
335,000000	0,004662
334,000000	0,003873
333,000000	0,005984
332,000000	0,004523
331,000000	0,004941
330,000000	0,008878
329,000000	0,011847
328,000000	0,011814
327,000000	0,011781
326,000000	0,013342
325,000000	0,015369
324,000000	0,014354
323,000000	0,010667
322,000000	0,006535
321,000000	0,006797
320,000000	0,012733
319,000000	0,015648
318,000000	0,010971
317,000000	0,004829
316,000000	0,005692
315,000000	0,006212
314,000000	0,011789
313,000000	0,015630
312,000000	0,010909
311,000000	0,003597
310,000000	0,005708
309,000000	0,011344
308,000000	0,017536
307,000000	0,020836
306,000000	0,020123
305,000000	0,018371
304,000000	0,015350
303,000000	0,011066
302,000000	0,010959
301,000000	0,016775
300,000000	0,021665
299,000000	0,021505
298,000000	0,010719
297,000000	0,011812
296,000000	0,034712
295,000000	0,055661
294,000000	0,068899
293,000000	0,068960
292,000000	0,055696
291,000000	0,041199
290,000000	0,045935
289,000000	0,062796
288,000000	0,073031
287,000000	0,070272
286,000000	0,057205
285,000000	0,043559
284,000000	0,045994
283,000000	0,064373
282,000000	0,079392
281,000000	0,082170
280,000000	0,074128
279,000000	0,061623
278,000000	0,054713
277,000000	0,061831
276,000000	0,072510
275,000000	0,073188
274,000000	0,062708
273,000000	0,049904
272,000000	0,045215
271,000000	0,053019
270,000000	0,065368
269,000000	0,071459
268,000000	0,068514
267,000000	0,061544
266,000000	0,055944
265,000000	0,056628
264,000000	0,061193
263,000000	0,060710
262,000000	0,053079
261,000000	0,043866
260,000000	0,039512
259,000000	0,045345
258,000000	0,055512
257,000000	0,057756
256,000000	0,051475
255,000000	0,045541
254,000000	0,042786
253,000000	0,043044
252,000000	0,046683
251,000000	0,047734
250,000000	0,042915
249,000000	0,037576
248,000000	0,032996
247,000000	0,027337
246,000000	0,026073
245,000000	0,029041
244,000000	0,028681
243,000000	0,027652
242,000000	0,029145
241,000000	0,031320
240,000000	0,034726
239,000000	0,036544
238,000000	0,032507
237,000000	0,027323
236,000000	0,026323
235,000000	0,026031
234,000000	0,024150
233,000000	0,024185
232,000000	0,022613
231,000000	0,018693
230,000000	0,017496
229,000000	0,018986
228,000000	0,020504
227,000000	0,022934
226,000000	0,024187
225,000000	0,022845
224,000000	0,020338
223,000000	0,018548
222,000000	0,017354
221,000000	0,019001
220,000000	0,023401
219,000000	0,024937
218,000000	0,022421
217,000000	0,020616
216,000000	0,018907
215,000000	0,018738
214,000000	0,021698
213,000000	0,023031
212,000000	0,022520
211,000000	0,022552
210,000000	0,022122
209,000000	0,022416
208,000000	0,025276
207,000000	0,027791
206,000000	0,026096
205,000000	0,025756
204,000000	0,030108
203,000000	0,033252
202,000000	0,033248
201,000000	0,031813
200,000000	0,029016
