PE IR       SUBTECH     SPECTRUM    ASCII       PEDS        4.00        
   -1
Praktikum 15.ASC
25/04/22
09:28:21.00
25/04/22
09:28:21.00
Praktikum
Sample 015 By Praktikum date Dienstag, April 22 2025
200,000000
#HDR
-1
-1
#GR
cm-1
EGY
1.0
0.0
4000,000000
-1,000000
3801
8
45,067784
0,000156
#DATA
4000,000000	42,589485
3999,000000	42,597650
3998,000000	42,593925
3997,000000	42,584027
3996,000000	42,578766
3995,000000	42,583683
3994,000000	42,593464
3993,000000	42,600530
3992,000000	42,607100
3991,000000	42,624347
3990,000000	42,658679
3989,000000	42,702940
3988,000000	42,742914
3987,000000	42,769441
3986,000000	42,782337
3985,000000	42,786499
3984,000000	42,788516
3983,000000	42,795330
3982,000000	42,810756
3981,000000	42,830761
3980,000000	42,844316
3979,000000	42,840928
3978,000000	42,819086
3977,000000	42,788336
3976,000000	42,763505
3975,000000	42,755939
3974,000000	42,767226
3973,000000	42,790404
3972,000000	42,817614
3971,000000	42,847003
3970,000000	42,882766
3969,000000	42,928434
3968,000000	42,978480
3967,000000	43,015485
3966,000000	43,018666
3965,000000	42,981197
3964,000000	42,922410
3963,000000	42,877978
3962,000000	42,872296
3961,000000	42,900503
3960,000000	42,939124
3959,000000	42,971163
3958,000000	42,997150
3957,000000	43,023388
3956,000000	43,045730
3955,000000	43,046324
3954,000000	43,001817
3953,000000	42,895528
3952,000000	42,732461
3951,000000	42,552544
3950,000000	42,423648
3949,000000	42,401169
3948,000000	42,474098
3947,000000	42,553176
3946,000000	42,540216
3945,000000	42,426359
3944,000000	42,317604
3943,000000	42,341644
3942,000000	42,524526
3941,000000	42,777157
3940,000000	42,997255
3939,000000	43,149536
3938,000000	43,233765
3937,000000	43,213101
3936,000000	43,028922
3935,000000	42,692276
3934,000000	42,323829
3933,000000	42,083859
3932,000000	42,063279
3931,000000	42,236463
3930,000000	42,485231
3929,000000	42,660801
3928,000000	42,670998
3927,000000	42,547388
3926,000000	42,418999
3925,000000	42,394705
3924,000000	42,459369
3923,000000	42,497226
3922,000000	42,405437
3921,000000	42,173293
3920,000000	41,879097
3919,000000	41,649370
3918,000000	41,616622
3917,000000	41,851772
3916,000000	42,301007
3915,000000	42,805914
3914,000000	43,213948
3913,000000	43,479395
3912,000000	43,643321
3911,000000	43,729926
3910,000000	43,676680
3909,000000	43,358416
3908,000000	42,676544
3907,000000	41,658364
3906,000000	40,499691
3905,000000	39,483956
3904,000000	38,808416
3903,000000	38,486957
3902,000000	38,442642
3901,000000	38,670308
3900,000000	39,249391
3899,000000	40,174435
3898,000000	41,239759
3897,000000	42,119099
3896,000000	42,539846
3895,000000	42,400111
3894,000000	41,827940
3893,000000	41,190567
3892,000000	40,916915
3891,000000	41,131630
3890,000000	41,460732
3889,000000	41,374814
3888,000000	40,764603
3887,000000	40,097607
3886,000000	39,907612
3885,000000	40,220217
3884,000000	40,585196
3883,000000	40,631872
3882,000000	40,476097
3881,000000	40,545705
3880,000000	41,066643
3879,000000	41,792079
3878,000000	42,242569
3877,000000	42,181832
3876,000000	41,800733
3875,000000	41,388983
3874,000000	40,935248
3873,000000	40,209722
3872,000000	39,250346
3871,000000	38,544388
3870,000000	38,543795
3869,000000	39,110981
3868,000000	39,652818
3867,000000	39,779330
3866,000000	39,654484
3865,000000	39,683819
3864,000000	40,043753
3863,000000	40,627628
3862,000000	41,280660
3861,000000	41,902373
3860,000000	42,314799
3859,000000	42,158646
3858,000000	41,031503
3857,000000	38,819977
3856,000000	36,004738
3855,000000	33,607965
3854,000000	32,646186
3853,000000	33,460567
3852,000000	35,543149
3851,000000	38,001985
3850,000000	40,167340
3849,000000	41,763127
3848,000000	42,715103
3847,000000	43,016073
3846,000000	42,787980
3845,000000	42,286284
3844,000000	41,724579
3843,000000	41,111658
3842,000000	40,310205
3841,000000	39,262790
3840,000000	38,165507
3839,000000	37,406331
3838,000000	37,306034
3837,000000	37,857847
3836,000000	38,727312
3835,000000	39,533423
3834,000000	40,138446
3833,000000	40,665131
3832,000000	41,259378
3831,000000	41,887643
3830,000000	42,369609
3829,000000	42,595294
3828,000000	42,655891
3827,000000	42,695175
3826,000000	42,618260
3825,000000	42,067995
3824,000000	40,859472
3823,000000	39,414202
3822,000000	38,524354
3821,000000	38,558868
3820,000000	39,027975
3819,000000	39,159189
3818,000000	38,810143
3817,000000	38,615203
3816,000000	39,215397
3815,000000	40,560711
3814,000000	42,069157
3813,000000	43,218407
3812,000000	43,795803
3811,000000	43,711917
3810,000000	42,949713
3809,000000	41,805379
3808,000000	40,907951
3807,000000	40,696734
3806,000000	40,888790
3805,000000	40,723485
3804,000000	39,838864
3803,000000	38,764794
3802,000000	38,383329
3801,000000	38,984472
3800,000000	40,047615
3799,000000	40,909422
3798,000000	41,440511
3797,000000	41,953694
3796,000000	42,671669
3795,000000	43,481892
3794,000000	44,154044
3793,000000	44,597072
3792,000000	44,860743
3791,000000	45,010702
3790,000000	45,067784
3789,000000	45,019642
3788,000000	44,857021
3787,000000	44,630412
3786,000000	44,455185
3785,000000	44,407762
3784,000000	44,399802
3783,000000	44,235316
3782,000000	43,840905
3781,000000	43,403366
3780,000000	43,228272
3779,000000	43,456989
3778,000000	43,956611
3777,000000	44,473671
3776,000000	44,836002
3775,000000	44,967464
3774,000000	44,778771
3773,000000	44,196466
3772,000000	43,361292
3771,000000	42,658838
3770,000000	42,395212
3769,000000	42,490940
3768,000000	42,640409
3767,000000	42,746854
3766,000000	42,990521
3765,000000	43,440223
3764,000000	43,810897
3763,000000	43,763907
3762,000000	43,302201
3761,000000	42,738129
3760,000000	42,372493
3759,000000	42,313948
3758,000000	42,475368
3757,000000	42,557321
3756,000000	42,121613
3755,000000	40,905198
3754,000000	39,090330
3753,000000	37,201156
3752,000000	35,789990
3751,000000	35,236363
3750,000000	35,583835
3749,000000	36,325385
3748,000000	36,562642
3747,000000	35,808186
3746,000000	34,666802
3745,000000	34,372566
3744,000000	35,528076
3743,000000	37,548220
3742,000000	39,363979
3741,000000	40,327341
3740,000000	40,348583
3739,000000	39,574162
3738,000000	38,320261
3737,000000	37,117597
3736,000000	36,424438
3735,000000	36,302193
3734,000000	36,575487
3733,000000	37,214082
3732,000000	38,273338
3731,000000	39,523106
3730,000000	40,455103
3729,000000	40,776126
3728,000000	40,682838
3727,000000	40,557904
3726,000000	40,562337
3725,000000	40,631101
3724,000000	40,727588
3723,000000	40,929684
3722,000000	41,297327
3721,000000	41,787906
3720,000000	42,322399
3719,000000	42,852325
3718,000000	43,299668
3717,000000	43,456189
3716,000000	43,038240
3715,000000	41,940080
3714,000000	40,444296
3713,000000	39,115482
3712,000000	38,431918
3711,000000	38,508668
3710,000000	39,160265
3709,000000	40,117818
3708,000000	41,125006
3707,000000	41,924060
3706,000000	42,287519
3705,000000	42,150256
3704,000000	41,685396
3703,000000	41,230987
3702,000000	41,094925
3701,000000	41,346759
3700,000000	41,785713
3699,000000	42,144156
3698,000000	42,325477
3697,000000	42,386203
3696,000000	42,313745
3695,000000	41,945657
3694,000000	41,147241
3693,000000	39,957266
3692,000000	38,539548
3691,000000	37,145560
3690,000000	36,171759
3689,000000	36,051252
3688,000000	36,882182
3687,000000	38,238801
3686,000000	39,508056
3685,000000	40,353415
3684,000000	40,766213
3683,000000	40,808397
3682,000000	40,505184
3681,000000	39,885199
3680,000000	38,905922
3679,000000	37,408534
3678,000000	35,445801
3677,000000	33,614838
3676,000000	32,717725
3675,000000	32,908116
3674,000000	33,440338
3673,000000	33,472757
3672,000000	32,952343
3671,000000	32,541558
3670,000000	32,803208
3669,000000	33,690298
3668,000000	34,770884
3667,000000	35,675364
3666,000000	36,256033
3665,000000	36,509541
3664,000000	36,500716
3663,000000	36,328184
3662,000000	36,049994
3661,000000	35,612098
3660,000000	34,894939
3659,000000	33,881935
3658,000000	32,802186
3657,000000	32,027155
3656,000000	31,724437
3655,000000	31,609384
3654,000000	31,132047
3653,000000	29,991228
3652,000000	28,413965
3651,000000	26,935732
3650,000000	25,992164
3649,000000	25,738837
3648,000000	26,120416
3647,000000	26,931105
3646,000000	27,839615
3645,000000	28,526624
3644,000000	28,870445
3643,000000	28,948228
3642,000000	28,868202
3641,000000	28,670655
3640,000000	28,381762
3639,000000	28,052131
3638,000000	27,693206
3637,000000	27,261780
3636,000000	26,756517
3635,000000	26,243823
3634,000000	25,705499
3633,000000	24,944282
3632,000000	23,789538
3631,000000	22,419374
3630,000000	21,348006
3629,000000	21,014062
3628,000000	21,404761
3627,000000	22,124007
3626,000000	22,759889
3625,000000	23,118493
3624,000000	23,155447
3623,000000	22,855927
3622,000000	22,268339
3621,000000	21,587599
3620,000000	21,082204
3619,000000	20,899946
3618,000000	20,960613
3617,000000	21,052010
3616,000000	21,017099
3615,000000	20,849203
3614,000000	20,632104
3613,000000	20,418118
3612,000000	20,180270
3611,000000	19,887472
3610,000000	19,601897
3609,000000	19,457483
3608,000000	19,525811
3607,000000	19,734464
3606,000000	19,933400
3605,000000	20,018536
3604,000000	19,972199
3603,000000	19,825491
3602,000000	19,628801
3601,000000	19,439508
3600,000000	19,286002
3599,000000	19,140194
3598,000000	18,957079
3597,000000	18,743608
3596,000000	18,563943
3595,000000	18,473247
3594,000000	18,461503
3593,000000	18,451319
3592,000000	18,334309
3591,000000	18,035859
3590,000000	17,596570
3589,000000	17,185495
3588,000000	16,988665
3587,000000	17,063282
3586,000000	17,313478
3585,000000	17,595230
3584,000000	17,814542
3583,000000	17,940372
3582,000000	17,978488
3581,000000	17,958014
3580,000000	17,914830
3579,000000	17,865675
3578,000000	17,807123
3577,000000	17,741309
3576,000000	17,683515
3575,000000	17,640030
3574,000000	17,595188
3573,000000	17,516849
3572,000000	17,356915
3571,000000	17,064474
3570,000000	16,643389
3569,000000	16,203175
3568,000000	15,908134
3567,000000	15,852646
3566,000000	15,996044
3565,000000	16,221641
3564,000000	16,430503
3563,000000	16,578704
3562,000000	16,663678
3561,000000	16,707145
3560,000000	16,736554
3559,000000	16,761458
3558,000000	16,768748
3557,000000	16,741613
3556,000000	16,674916
3555,000000	16,575440
3554,000000	16,465889
3553,000000	16,384651
3552,000000	16,353961
3551,000000	16,343878
3550,000000	16,293632
3549,000000	16,179339
3548,000000	16,041492
3547,000000	15,940777
3546,000000	15,907220
3545,000000	15,937305
3544,000000	16,012166
3543,000000	16,102625
3542,000000	16,175035
3541,000000	16,209089
3540,000000	16,204715
3539,000000	16,170153
3538,000000	16,118156
3537,000000	16,072669
3536,000000	16,055680
3535,000000	16,060324
3534,000000	16,054428
3533,000000	16,016724
3532,000000	15,952803
3531,000000	15,875161
3530,000000	15,790498
3529,000000	15,712022
3528,000000	15,658321
3527,000000	15,629385
3526,000000	15,606203
3525,000000	15,583582
3524,000000	15,582206
3523,000000	15,615601
3522,000000	15,665822
3521,000000	15,706150
3520,000000	15,730904
3519,000000	15,747932
3518,000000	15,758222
3517,000000	15,758708
3516,000000	15,752494
3515,000000	15,741146
3514,000000	15,715601
3513,000000	15,668054
3512,000000	15,607577
3511,000000	15,555479
3510,000000	15,528754
3509,000000	15,529754
3508,000000	15,542009
3507,000000	15,535535
3506,000000	15,491033
3505,000000	15,424879
3504,000000	15,378530
3503,000000	15,377888
3502,000000	15,413041
3501,000000	15,457329
3500,000000	15,491757
3499,000000	15,507654
3498,000000	15,504547
3497,000000	15,494371
3496,000000	15,494314
3495,000000	15,507539
3494,000000	15,520442
3493,000000	15,522403
3492,000000	15,515063
3491,000000	15,500738
3490,000000	15,478169
3489,000000	15,454770
3488,000000	15,445253
3487,000000	15,450144
3486,000000	15,450209
3485,000000	15,430982
3484,000000	15,400844
3483,000000	15,378357
3482,000000	15,373570
3481,000000	15,387686
3480,000000	15,416695
3479,000000	15,447557
3478,000000	15,463937
3477,000000	15,463762
3476,000000	15,461316
3475,000000	15,466690
3474,000000	15,475165
3473,000000	15,480830
3472,000000	15,486437
3471,000000	15,493194
3470,000000	15,494823
3469,000000	15,489635
3468,000000	15,486200
3467,000000	15,489206
3466,000000	15,491207
3465,000000	15,485958
3464,000000	15,479391
3463,000000	15,480003
3462,000000	15,488109
3461,000000	15,500797
3460,000000	15,517641
3459,000000	15,535549
3458,000000	15,547995
3457,000000	15,554705
3456,000000	15,562994
3455,000000	15,575366
3454,000000	15,586057
3453,000000	15,591719
3452,000000	15,592818
3451,000000	15,581998
3450,000000	15,548089
3449,000000	15,498921
3448,000000	15,464439
3447,000000	15,466051
3446,000000	15,494082
3445,000000	15,525373
3444,000000	15,551085
3443,000000	15,576929
3442,000000	15,606191
3441,000000	15,635636
3440,000000	15,662693
3439,000000	15,686512
3438,000000	15,705274
3437,000000	15,719362
3436,000000	15,732986
3435,000000	15,747991
3434,000000	15,761038
3433,000000	15,770695
3432,000000	15,781112
3431,000000	15,795285
3430,000000	15,811391
3429,000000	15,828785
3428,000000	15,850026
3427,000000	15,873071
3426,000000	15,889120
3425,000000	15,892421
3424,000000	15,886455
3423,000000	15,878352
3422,000000	15,874502
3421,000000	15,882923
3420,000000	15,910076
3419,000000	15,951209
3418,000000	15,991831
3417,000000	16,022708
3416,000000	16,046333
3415,000000	16,067146
3414,000000	16,084454
3413,000000	16,098211
3412,000000	16,112542
3411,000000	16,129153
3410,000000	16,144675
3409,000000	16,157792
3408,000000	16,171617
3407,000000	16,186200
3406,000000	16,197093
3405,000000	16,204213
3404,000000	16,214102
3403,000000	16,229860
3402,000000	16,246364
3401,000000	16,258784
3400,000000	16,268957
3399,000000	16,280570
3398,000000	16,294340
3397,000000	16,309991
3396,000000	16,326931
3395,000000	16,342262
3394,000000	16,354877
3393,000000	16,371300
3392,000000	16,399322
3391,000000	16,435457
3390,000000	16,467191
3389,000000	16,488168
3388,000000	16,502458
3387,000000	16,514472
3386,000000	16,524969
3385,000000	16,537744
3384,000000	16,558757
3383,000000	16,586057
3382,000000	16,610645
3381,000000	16,629537
3380,000000	16,648520
3379,000000	16,670105
3378,000000	16,689292
3377,000000	16,703882
3376,000000	16,718773
3375,000000	16,736626
3374,000000	16,753532
3373,000000	16,767254
3372,000000	16,780814
3371,000000	16,794507
3370,000000	16,803571
3369,000000	16,807367
3368,000000	16,812389
3367,000000	16,822833
3366,000000	16,836109
3365,000000	16,850435
3364,000000	16,868381
3363,000000	16,890107
3362,000000	16,911193
3361,000000	16,929946
3360,000000	16,949229
3359,000000	16,969011
3358,000000	16,985309
3357,000000	16,998860
3356,000000	17,016227
3355,000000	17,039391
3354,000000	17,062676
3353,000000	17,082360
3352,000000	17,101139
3351,000000	17,120648
3350,000000	17,138023
3349,000000	17,152724
3348,000000	17,168829
3347,000000	17,187463
3346,000000	17,204427
3345,000000	17,218158
3344,000000	17,232596
3343,000000	17,249598
3342,000000	17,265660
3341,000000	17,278246
3340,000000	17,288521
3339,000000	17,296692
3338,000000	17,302079
3337,000000	17,309089
3336,000000	17,324916
3335,000000	17,349301
3334,000000	17,374157
3333,000000	17,394757
3332,000000	17,413321
3331,000000	17,430869
3330,000000	17,444498
3329,000000	17,454658
3328,000000	17,466577
3327,000000	17,481811
3326,000000	17,496484
3325,000000	17,509907
3324,000000	17,526504
3323,000000	17,546978
3322,000000	17,565933
3321,000000	17,580833
3320,000000	17,595557
3319,000000	17,612163
3318,000000	17,626716
3317,000000	17,636526
3316,000000	17,644286
3315,000000	17,652570
3314,000000	17,660542
3313,000000	17,668078
3312,000000	17,677092
3311,000000	17,687428
3310,000000	17,697729
3309,000000	17,710887
3308,000000	17,731254
3307,000000	17,756048
3306,000000	17,777067
3305,000000	17,791765
3304,000000	17,804965
3303,000000	17,818831
3302,000000	17,829930
3301,000000	17,837289
3300,000000	17,845001
3299,000000	17,855038
3298,000000	17,864785
3297,000000	17,873240
3296,000000	17,882147
3295,000000	17,890071
3294,000000	17,893556
3293,000000	17,894982
3292,000000	17,901341
3291,000000	17,913894
3290,000000	17,927097
3289,000000	17,938554
3288,000000	17,950958
3287,000000	17,963554
3286,000000	17,971074
3285,000000	17,973457
3284,000000	17,977453
3283,000000	17,985793
3282,000000	17,993380
3281,000000	17,996487
3280,000000	17,997515
3279,000000	17,997884
3278,000000	17,994753
3277,000000	17,988354
3276,000000	17,984883
3275,000000	17,988723
3274,000000	17,998044
3273,000000	18,010487
3272,000000	18,026171
3271,000000	18,042694
3270,000000	18,054537
3269,000000	18,060204
3268,000000	18,063843
3267,000000	18,067704
3266,000000	18,069718
3265,000000	18,069895
3264,000000	18,071860
3263,000000	18,075938
3262,000000	18,077728
3261,000000	18,076036
3260,000000	18,074939
3259,000000	18,075943
3258,000000	18,074855
3257,000000	18,069552
3256,000000	18,064408
3255,000000	18,064239
3254,000000	18,069183
3253,000000	18,077477
3252,000000	18,087862
3251,000000	18,097081
3250,000000	18,100282
3249,000000	18,095879
3248,000000	18,086464
3247,000000	18,074935
3246,000000	18,064360
3245,000000	18,059986
3244,000000	18,064937
3243,000000	18,074386
3242,000000	18,080481
3241,000000	18,082011
3240,000000	18,082991
3239,000000	18,083523
3238,000000	18,080263
3237,000000	18,074862
3236,000000	18,072807
3235,000000	18,073949
3234,000000	18,072687
3233,000000	18,067988
3232,000000	18,064289
3231,000000	18,062457
3230,000000	18,058766
3229,000000	18,053833
3228,000000	18,053069
3227,000000	18,056961
3226,000000	18,059537
3225,000000	18,058028
3224,000000	18,054978
3223,000000	18,049839
3222,000000	18,038389
3221,000000	18,023052
3220,000000	18,013545
3219,000000	18,013373
3218,000000	18,014303
3217,000000	18,008884
3216,000000	18,000176
3215,000000	17,994646
3214,000000	17,992409
3213,000000	17,989690
3212,000000	17,985281
3211,000000	17,980149
3210,000000	17,975139
3209,000000	17,972038
3208,000000	17,972545
3207,000000	17,974212
3206,000000	17,972211
3205,000000	17,966458
3204,000000	17,961414
3203,000000	17,957816
3202,000000	17,950647
3201,000000	17,937115
3200,000000	17,920742
3199,000000	17,906027
3198,000000	17,894656
3197,000000	17,888183
3196,000000	17,887992
3195,000000	17,890844
3194,000000	17,890383
3193,000000	17,884777
3192,000000	17,877812
3191,000000	17,871369
3190,000000	17,862859
3189,000000	17,851004
3188,000000	17,838077
3187,000000	17,825230
3186,000000	17,811701
3185,000000	17,799560
3184,000000	17,792458
3183,000000	17,788204
3182,000000	17,779119
3181,000000	17,762199
3180,000000	17,743165
3179,000000	17,728735
3178,000000	17,720055
3177,000000	17,715199
3176,000000	17,712365
3175,000000	17,708696
3174,000000	17,701161
3173,000000	17,690384
3172,000000	17,679532
3171,000000	17,668875
3170,000000	17,656192
3169,000000	17,642346
3168,000000	17,630846
3167,000000	17,621644
3166,000000	17,611098
3165,000000	17,598474
3164,000000	17,586684
3163,000000	17,576218
3162,000000	17,564243
3161,000000	17,550270
3160,000000	17,537019
3159,000000	17,525146
3158,000000	17,512567
3157,000000	17,499264
3156,000000	17,487179
3155,000000	17,475365
3154,000000	17,461005
3153,000000	17,445133
3152,000000	17,431466
3151,000000	17,419776
3150,000000	17,406452
3149,000000	17,391371
3148,000000	17,377754
3147,000000	17,365406
3146,000000	17,350771
3145,000000	17,333836
3144,000000	17,318350
3143,000000	17,304919
3142,000000	17,290435
3141,000000	17,274696
3140,000000	17,260903
3139,000000	17,248943
3138,000000	17,234433
3137,000000	17,215153
3136,000000	17,192887
3135,000000	17,169351
3134,000000	17,146280
3133,000000	17,128515
3132,000000	17,119455
3131,000000	17,113716
3130,000000	17,101738
3129,000000	17,082027
3128,000000	17,061379
3127,000000	17,043060
3126,000000	17,023101
3125,000000	16,999487
3124,000000	16,976586
3123,000000	16,957958
3122,000000	16,941646
3121,000000	16,925033
3120,000000	16,908261
3119,000000	16,890969
3118,000000	16,871630
3117,000000	16,852000
3116,000000	16,836470
3115,000000	16,825510
3114,000000	16,814850
3113,000000	16,802067
3112,000000	16,788523
3111,000000	16,774407
3110,000000	16,757800
3109,000000	16,739516
3108,000000	16,722864
3107,000000	16,707545
3106,000000	16,689322
3105,000000	16,666451
3104,000000	16,641554
3103,000000	16,617089
3102,000000	16,594382
3101,000000	16,576203
3100,000000	16,563923
3099,000000	16,552382
3098,000000	16,534740
3097,000000	16,512637
3096,000000	16,494677
3095,000000	16,484609
3094,000000	16,477681
3093,000000	16,469152
3092,000000	16,458863
3091,000000	16,446536
3090,000000	16,429864
3089,000000	16,409589
3088,000000	16,390127
3087,000000	16,373181
3086,000000	16,355977
3085,000000	16,336664
3084,000000	16,316113
3083,000000	16,293950
3082,000000	16,268890
3081,000000	16,243577
3080,000000	16,223235
3079,000000	16,208677
3078,000000	16,196132
3077,000000	16,183797
3076,000000	16,172583
3075,000000	16,160660
3074,000000	16,144205
3073,000000	16,123984
3072,000000	16,104281
3071,000000	16,084760
3070,000000	16,060255
3069,000000	16,029586
3068,000000	15,997973
3067,000000	15,969887
3066,000000	15,945859
3065,000000	15,926970
3064,000000	15,915273
3063,000000	15,908249
3062,000000	15,899126
3061,000000	15,884427
3060,000000	15,865933
3059,000000	15,845264
3058,000000	15,822860
3057,000000	15,802597
3056,000000	15,789923
3055,000000	15,783747
3054,000000	15,776531
3053,000000	15,763745
3052,000000	15,747318
3051,000000	15,729497
3050,000000	15,710206
3049,000000	15,691487
3048,000000	15,677240
3047,000000	15,666753
3046,000000	15,654763
3045,000000	15,639451
3044,000000	15,624056
3043,000000	15,609632
3042,000000	15,593062
3041,000000	15,573729
3040,000000	15,555187
3039,000000	15,538130
3038,000000	15,518387
3037,000000	15,494011
3036,000000	15,468105
3035,000000	15,442505
3034,000000	15,415346
3033,000000	15,387507
3032,000000	15,364977
3031,000000	15,351090
3030,000000	15,341373
3029,000000	15,329237
3028,000000	15,312611
3027,000000	15,292496
3026,000000	15,269558
3025,000000	15,244834
3024,000000	15,220264
3023,000000	15,196244
3022,000000	15,171325
3021,000000	15,145260
3020,000000	15,119448
3019,000000	15,094615
3018,000000	15,071672
3017,000000	15,054004
3016,000000	15,044274
3015,000000	15,039522
3014,000000	15,034627
3013,000000	15,030084
3012,000000	15,030813
3011,000000	15,037571
3010,000000	15,045183
3009,000000	15,049442
3008,000000	15,049893
3007,000000	15,045965
3006,000000	15,036621
3005,000000	15,024551
3004,000000	15,014798
3003,000000	15,008005
3002,000000	15,000320
3001,000000	14,990040
3000,000000	14,979055
2999,000000	14,967347
2998,000000	14,952306
2997,000000	14,934289
2996,000000	14,917181
2995,000000	14,902606
2994,000000	14,888581
2993,000000	14,874250
2992,000000	14,860544
2991,000000	14,846211
2990,000000	14,828951
2989,000000	14,810543
2988,000000	14,795014
2987,000000	14,781668
2986,000000	14,765925
2985,000000	14,746994
2984,000000	14,728152
2983,000000	14,709356
2982,000000	14,686692
2981,000000	14,659939
2980,000000	14,633770
2979,000000	14,610009
2978,000000	14,585285
2977,000000	14,557718
2976,000000	14,529504
2975,000000	14,501311
2974,000000	14,470432
2973,000000	14,436178
2972,000000	14,401143
2971,000000	14,365388
2970,000000	14,325448
2969,000000	14,280982
2968,000000	14,236665
2967,000000	14,195736
2966,000000	14,156933
2965,000000	14,119546
2964,000000	14,085690
2963,000000	14,055901
2962,000000	14,027831
2961,000000	14,001233
2960,000000	13,979138
2959,000000	13,962356
2958,000000	13,947843
2957,000000	13,933833
2956,000000	13,921723
2955,000000	13,911463
2954,000000	13,900293
2953,000000	13,887450
2952,000000	13,875108
2951,000000	13,863358
2950,000000	13,849175
2949,000000	13,831479
2948,000000	13,812235
2947,000000	13,791415
2946,000000	13,766208
2945,000000	13,736275
2944,000000	13,704580
2943,000000	13,671689
2942,000000	13,634710
2941,000000	13,593344
2940,000000	13,551652
2939,000000	13,512203
2938,000000	13,473355
2937,000000	13,434087
2936,000000	13,396435
2935,000000	13,361442
2934,000000	13,327305
2933,000000	13,293269
2932,000000	13,261054
2931,000000	13,231004
2930,000000	13,201246
2929,000000	13,171902
2928,000000	13,145992
2927,000000	13,125357
2926,000000	13,109921
2925,000000	13,101677
2924,000000	13,104408
2923,000000	13,118375
2922,000000	13,139860
2921,000000	13,166548
2920,000000	13,199006
2919,000000	13,236142
2918,000000	13,274627
2917,000000	13,313946
2916,000000	13,356986
2915,000000	13,404359
2914,000000	13,452435
2913,000000	13,498318
2912,000000	13,541920
2911,000000	13,582295
2910,000000	13,616720
2909,000000	13,644902
2908,000000	13,669719
2907,000000	13,692422
2906,000000	13,711410
2905,000000	13,726733
2904,000000	13,741495
2903,000000	13,757457
2902,000000	13,773223
2901,000000	13,787771
2900,000000	13,801773
2899,000000	13,814686
2898,000000	13,824539
2897,000000	13,831560
2896,000000	13,838416
2895,000000	13,846304
2894,000000	13,854380
2893,000000	13,862848
2892,000000	13,872503
2891,000000	13,881388
2890,000000	13,886353
2889,000000	13,888128
2888,000000	13,890475
2887,000000	13,894374
2886,000000	13,897291
2885,000000	13,898041
2884,000000	13,897592
2883,000000	13,895339
2882,000000	13,889598
2881,000000	13,881851
2880,000000	13,875379
2879,000000	13,869493
2878,000000	13,860157
2877,000000	13,846666
2876,000000	13,832530
2875,000000	13,819241
2874,000000	13,804283
2873,000000	13,786122
2872,000000	13,766222
2871,000000	13,745148
2870,000000	13,721187
2869,000000	13,693718
2868,000000	13,663881
2867,000000	13,631587
2866,000000	13,596161
2865,000000	13,560032
2864,000000	13,527490
2863,000000	13,499783
2862,000000	13,475736
2861,000000	13,456887
2860,000000	13,446835
2859,000000	13,445679
2858,000000	13,450039
2857,000000	13,458571
2856,000000	13,472395
2855,000000	13,490262
2854,000000	13,508776
2853,000000	13,528019
2852,000000	13,551913
2851,000000	13,582585
2850,000000	13,619055
2849,000000	13,661298
2848,000000	13,710075
2847,000000	13,762461
2846,000000	13,812874
2845,000000	13,859349
2844,000000	13,903848
2843,000000	13,946257
2842,000000	13,983567
2841,000000	14,015494
2840,000000	14,045460
2839,000000	14,075024
2838,000000	14,102173
2837,000000	14,125956
2836,000000	14,148034
2835,000000	14,168955
2834,000000	14,187626
2833,000000	14,204917
2832,000000	14,223098
2831,000000	14,241444
2830,000000	14,257180
2829,000000	14,270788
2828,000000	14,285462
2827,000000	14,301331
2826,000000	14,315505
2825,000000	14,327824
2824,000000	14,340970
2823,000000	14,354727
2822,000000	14,365916
2821,000000	14,374528
2820,000000	14,384160
2819,000000	14,395700
2818,000000	14,406346
2817,000000	14,415587
2816,000000	14,426426
2815,000000	14,439511
2814,000000	14,451833
2813,000000	14,462512
2812,000000	14,474292
2811,000000	14,488047
2810,000000	14,501113
2809,000000	14,512554
2808,000000	14,524679
2807,000000	14,537873
2806,000000	14,549226
2805,000000	14,557903
2804,000000	14,566876
2803,000000	14,577654
2802,000000	14,588176
2801,000000	14,597552
2800,000000	14,608001
2799,000000	14,620333
2798,000000	14,632119
2797,000000	14,642144
2796,000000	14,652402
2795,000000	14,664094
2794,000000	14,675903
2793,000000	14,687616
2792,000000	14,701189
2791,000000	14,716784
2790,000000	14,731856
2789,000000	14,745578
2788,000000	14,760181
2787,000000	14,776679
2786,000000	14,793246
2785,000000	14,809019
2784,000000	14,825573
2783,000000	14,843462
2782,000000	14,860886
2781,000000	14,876858
2780,000000	14,892245
2779,000000	14,907199
2778,000000	14,921105
2777,000000	14,935164
2776,000000	14,951183
2775,000000	14,967864
2774,000000	14,982421
2773,000000	14,995747
2772,000000	15,011303
2771,000000	15,028874
2770,000000	15,044372
2769,000000	15,056305
2768,000000	15,067522
2767,000000	15,079991
2766,000000	15,092628
2765,000000	15,105147
2764,000000	15,119272
2763,000000	15,135109
2762,000000	15,150618
2761,000000	15,165465
2760,000000	15,181182
2759,000000	15,197045
2758,000000	15,210390
2757,000000	15,221589
2756,000000	15,234082
2755,000000	15,248795
2754,000000	15,263140
2753,000000	15,276147
2752,000000	15,289954
2751,000000	15,305383
2750,000000	15,320652
2749,000000	15,335387
2748,000000	15,351339
2747,000000	15,368226
2746,000000	15,383309
2745,000000	15,396108
2744,000000	15,409227
2743,000000	15,423712
2742,000000	15,437890
2741,000000	15,451519
2740,000000	15,466551
2739,000000	15,482970
2738,000000	15,498286
2737,000000	15,512185
2736,000000	15,527384
2735,000000	15,544950
2734,000000	15,562839
2733,000000	15,579883
2732,000000	15,597105
2731,000000	15,614367
2730,000000	15,629936
2729,000000	15,644199
2728,000000	15,659748
2727,000000	15,677065
2726,000000	15,694004
2725,000000	15,710040
2724,000000	15,726894
2723,000000	15,744514
2722,000000	15,760708
2721,000000	15,775444
2720,000000	15,791345
2719,000000	15,809257
2718,000000	15,827258
2717,000000	15,844501
2716,000000	15,862105
2715,000000	15,879922
2714,000000	15,896487
2713,000000	15,912438
2712,000000	15,929887
2711,000000	15,948207
2710,000000	15,964688
2709,000000	15,979516
2708,000000	15,995881
2707,000000	16,014869
2706,000000	16,034468
2705,000000	16,053667
2704,000000	16,073309
2703,000000	16,092890
2702,000000	16,110942
2701,000000	16,128635
2700,000000	16,148621
2699,000000	16,170418
2698,000000	16,191331
2697,000000	16,211529
2696,000000	16,233389
2695,000000	16,256197
2694,000000	16,276767
2693,000000	16,295257
2692,000000	16,315009
2691,000000	16,336457
2690,000000	16,356606
2689,000000	16,375002
2688,000000	16,394610
2687,000000	16,416155
2686,000000	16,436971
2685,000000	16,456405
2684,000000	16,476998
2683,000000	16,499184
2682,000000	16,520038
2681,000000	16,538480
2680,000000	16,556918
2679,000000	16,576596
2678,000000	16,596086
2677,000000	16,615373
2676,000000	16,636600
2675,000000	16,659584
2674,000000	16,681273
2673,000000	16,700781
2672,000000	16,720516
2671,000000	16,741434
2670,000000	16,761798
2669,000000	16,781489
2668,000000	16,802721
2667,000000	16,825568
2666,000000	16,847472
2665,000000	16,868185
2664,000000	16,890407
2663,000000	16,914619
2662,000000	16,938025
2661,000000	16,959717
2660,000000	16,982005
2659,000000	17,005512
2658,000000	17,027870
2657,000000	17,048586
2656,000000	17,070398
2655,000000	17,094302
2654,000000	17,117916
2653,000000	17,140217
2652,000000	17,163384
2651,000000	17,188290
2650,000000	17,212704
2649,000000	17,235619
2648,000000	17,259119
2647,000000	17,284301
2646,000000	17,309350
2645,000000	17,333258
2644,000000	17,357534
2643,000000	17,382828
2642,000000	17,407590
2641,000000	17,431483
2640,000000	17,456322
2639,000000	17,482489
2638,000000	17,508053
2637,000000	17,532473
2636,000000	17,557497
2635,000000	17,583524
2634,000000	17,608847
2633,000000	17,633299
2632,000000	17,658771
2631,000000	17,685361
2630,000000	17,710934
2629,000000	17,735216
2628,000000	17,760400
2627,000000	17,786868
2626,000000	17,812443
2625,000000	17,836581
2624,000000	17,861315
2623,000000	17,887217
2622,000000	17,912438
2621,000000	17,936666
2620,000000	17,961977
2619,000000	17,988931
2618,000000	18,015592
2617,000000	18,041229
2616,000000	18,067212
2615,000000	18,093727
2614,000000	18,119457
2613,000000	18,144955
2612,000000	18,172234
2611,000000	18,200539
2610,000000	18,226646
2609,000000	18,249983
2608,000000	18,273351
2607,000000	18,298086
2606,000000	18,322634
2605,000000	18,346463
2604,000000	18,371111
2603,000000	18,396650
2602,000000	18,421180
2601,000000	18,444399
2600,000000	18,467862
2599,000000	18,491355
2598,000000	18,513231
2597,000000	18,534392
2596,000000	18,557598
2595,000000	18,582509
2594,000000	18,606005
2593,000000	18,627690
2592,000000	18,650452
2591,000000	18,675150
2590,000000	18,699542
2589,000000	18,723041
2588,000000	18,747627
2587,000000	18,773329
2586,000000	18,797630
2585,000000	18,820300
2584,000000	18,844058
2583,000000	18,869512
2582,000000	18,894155
2581,000000	18,917387
2580,000000	18,941774
2579,000000	18,968049
2578,000000	18,993490
2577,000000	19,016461
2576,000000	19,038300
2575,000000	19,059635
2574,000000	19,079259
2573,000000	19,097779
2572,000000	19,117952
2571,000000	19,140143
2570,000000	19,161662
2569,000000	19,181522
2568,000000	19,201641
2567,000000	19,222443
2566,000000	19,241785
2565,000000	19,259362
2564,000000	19,277674
2563,000000	19,297385
2562,000000	19,316044
2561,000000	19,332597
2560,000000	19,349013
2559,000000	19,366192
2558,000000	19,382476
2557,000000	19,397290
2556,000000	19,412216
2555,000000	19,427503
2554,000000	19,441600
2553,000000	19,454915
2552,000000	19,469771
2551,000000	19,485775
2550,000000	19,499703
2549,000000	19,510779
2548,000000	19,521631
2547,000000	19,533200
2546,000000	19,543445
2545,000000	19,552098
2544,000000	19,561818
2543,000000	19,573195
2542,000000	19,583432
2541,000000	19,591510
2540,000000	19,600058
2539,000000	19,610360
2538,000000	19,619876
2537,000000	19,626760
2536,000000	19,632560
2535,000000	19,638732
2534,000000	19,644263
2533,000000	19,648532
2532,000000	19,652846
2531,000000	19,657492
2530,000000	19,660882
2529,000000	19,662880
2528,000000	19,665372
2527,000000	19,668440
2526,000000	19,669707
2525,000000	19,668627
2524,000000	19,667588
2523,000000	19,667460
2522,000000	19,666033
2521,000000	19,662032
2520,000000	19,657079
2519,000000	19,652436
2518,000000	19,647288
2517,000000	19,641388
2516,000000	19,635744
2515,000000	19,629852
2514,000000	19,621806
2513,000000	19,611767
2512,000000	19,601759
2511,000000	19,591614
2510,000000	19,579069
2509,000000	19,564363
2508,000000	19,550221
2507,000000	19,536900
2506,000000	19,521854
2505,000000	19,505033
2504,000000	19,489722
2503,000000	19,476776
2502,000000	19,462753
2501,000000	19,445338
2500,000000	19,426248
2499,000000	19,407184
2498,000000	19,387183
2497,000000	19,365665
2496,000000	19,344122
2495,000000	19,323023
2494,000000	19,300764
2493,000000	19,277007
2492,000000	19,253484
2491,000000	19,230306
2490,000000	19,205193
2489,000000	19,177597
2488,000000	19,149671
2487,000000	19,122118
2486,000000	19,093063
2485,000000	19,062195
2484,000000	19,031956
2483,000000	19,003168
2482,000000	18,973316
2481,000000	18,940685
2480,000000	18,906516
2479,000000	18,871903
2478,000000	18,836169
2477,000000	18,799506
2476,000000	18,763630
2475,000000	18,728487
2474,000000	18,691871
2473,000000	18,653225
2472,000000	18,614365
2471,000000	18,575705
2470,000000	18,535484
2469,000000	18,493529
2468,000000	18,451864
2467,000000	18,410661
2466,000000	18,367630
2465,000000	18,322306
2464,000000	18,277044
2463,000000	18,232717
2462,000000	18,187322
2461,000000	18,140060
2460,000000	18,092801
2459,000000	18,046419
2458,000000	17,999384
2457,000000	17,951079
2456,000000	17,902867
2455,000000	17,854815
2454,000000	17,805015
2453,000000	17,753154
2452,000000	17,701115
2451,000000	17,649310
2450,000000	17,596029
2449,000000	17,541228
2448,000000	17,487246
2447,000000	17,434820
2446,000000	17,381997
2445,000000	17,327651
2444,000000	17,272679
2443,000000	17,217227
2442,000000	17,160250
2441,000000	17,102257
2440,000000	17,044927
2439,000000	16,987884
2438,000000	16,929442
2437,000000	16,870257
2436,000000	16,812281
2435,000000	16,754484
2434,000000	16,694062
2433,000000	16,631716
2432,000000	16,570856
2431,000000	16,511652
2430,000000	16,450855
2429,000000	16,387782
2428,000000	16,325326
2427,000000	16,264403
2426,000000	16,202504
2425,000000	16,138578
2424,000000	16,074507
2423,000000	16,010936
2422,000000	15,946340
2421,000000	15,880966
2420,000000	15,817086
2419,000000	15,754599
2418,000000	15,690974
2417,000000	15,625947
2416,000000	15,561592
2415,000000	15,497516
2414,000000	15,431076
2413,000000	15,362670
2412,000000	15,295624
2411,000000	15,230493
2410,000000	15,164728
2409,000000	15,098283
2408,000000	15,033822
2407,000000	14,970896
2406,000000	14,905780
2405,000000	14,837938
2404,000000	14,770739
2403,000000	14,704999
2402,000000	14,637791
2401,000000	14,568652
2400,000000	14,500891
2399,000000	14,435325
2398,000000	14,368762
2397,000000	14,300050
2396,000000	14,231713
2395,000000	14,164222
2394,000000	14,094489
2393,000000	14,021293
2392,000000	13,946159
2391,000000	13,866749
2390,000000	13,775780
2389,000000	13,666760
2388,000000	13,534645
2387,000000	13,370050
2386,000000	13,157636
2385,000000	12,885496
2384,000000	12,548002
2383,000000	12,141042
2382,000000	11,663631
2381,000000	11,123814
2380,000000	10,540432
2379,000000	9,932555
2378,000000	9,315023
2377,000000	8,703915
2376,000000	8,115669
2375,000000	7,559227
2374,000000	7,034716
2373,000000	6,543848
2372,000000	6,092373
2371,000000	5,682465
2370,000000	5,309858
2369,000000	4,972977
2368,000000	4,676460
2367,000000	4,420374
2366,000000	4,198973
2365,000000	4,010694
2364,000000	3,860863
2363,000000	3,750346
2362,000000	3,670445
2361,000000	3,618078
2360,000000	3,602310
2359,000000	3,630412
2358,000000	3,700557
2357,000000	3,812793
2356,000000	3,978794
2355,000000	4,210484
2354,000000	4,515150
2353,000000	4,909914
2352,000000	5,406689
2351,000000	5,950193
2350,000000	6,380897
2349,000000	6,515793
2348,000000	6,292354
2347,000000	5,827679
2346,000000	5,323870
2345,000000	4,925072
2344,000000	4,663546
2343,000000	4,504715
2342,000000	4,411010
2341,000000	4,359793
2340,000000	4,336387
2339,000000	4,328898
2338,000000	4,331982
2337,000000	4,343535
2336,000000	4,358225
2335,000000	4,365539
2334,000000	4,356566
2333,000000	4,333612
2332,000000	4,312172
2331,000000	4,312703
2330,000000	4,348163
2329,000000	4,416354
2328,000000	4,501301
2327,000000	4,581352
2326,000000	4,640815
2325,000000	4,680072
2324,000000	4,714834
2323,000000	4,764604
2322,000000	4,840461
2321,000000	4,943918
2320,000000	5,072469
2319,000000	5,219887
2318,000000	5,371912
2317,000000	5,508468
2316,000000	5,615094
2315,000000	5,692154
2314,000000	5,752336
2313,000000	5,810925
2312,000000	5,877629
2311,000000	5,954237
2310,000000	6,036537
2309,000000	6,119029
2308,000000	6,198278
2307,000000	6,272507
2306,000000	6,339143
2305,000000	6,394248
2304,000000	6,434841
2303,000000	6,460692
2302,000000	6,473964
2301,000000	6,478222
2300,000000	6,476645
2299,000000	6,470548
2298,000000	6,459295
2297,000000	6,442308
2296,000000	6,420650
2295,000000	6,395601
2294,000000	6,367230
2293,000000	6,335215
2292,000000	6,300101
2291,000000	6,262642
2290,000000	6,222656
2289,000000	6,180103
2288,000000	6,136224
2287,000000	6,091846
2286,000000	6,045117
2285,000000	5,992134
2284,000000	5,930003
2283,000000	5,858654
2282,000000	5,780175
2281,000000	5,697483
2280,000000	5,612892
2279,000000	5,527317
2278,000000	5,441044
2277,000000	5,355274
2276,000000	5,271980
2275,000000	5,191711
2274,000000	5,113000
2273,000000	5,034506
2272,000000	4,956588
2271,000000	4,880002
2270,000000	4,804406
2269,000000	4,729135
2268,000000	4,654350
2267,000000	4,580558
2266,000000	4,507802
2265,000000	4,436065
2264,000000	4,365588
2263,000000	4,296228
2262,000000	4,227418
2261,000000	4,158985
2260,000000	4,090947
2259,000000	4,022469
2258,000000	3,952548
2257,000000	3,881956
2256,000000	3,812725
2255,000000	3,745322
2254,000000	3,678215
2253,000000	3,610726
2252,000000	3,544347
2251,000000	3,480279
2250,000000	3,417552
2249,000000	3,354626
2248,000000	3,291189
2247,000000	3,227416
2246,000000	3,163077
2245,000000	3,098504
2244,000000	3,034973
2243,000000	2,973031
2242,000000	2,911726
2241,000000	2,850411
2240,000000	2,789894
2239,000000	2,730943
2238,000000	2,673005
2237,000000	2,615383
2236,000000	2,558350
2235,000000	2,502163
2234,000000	2,446231
2233,000000	2,390175
2232,000000	2,334683
2231,000000	2,280492
2230,000000	2,227438
2229,000000	2,175034
2228,000000	2,123056
2227,000000	2,071262
2226,000000	2,019680
2225,000000	1,969293
2224,000000	1,921205
2223,000000	1,874908
2222,000000	1,828805
2221,000000	1,782446
2220,000000	1,736684
2219,000000	1,691686
2218,000000	1,646671
2217,000000	1,601861
2216,000000	1,558730
2215,000000	1,517813
2214,000000	1,477966
2213,000000	1,438238
2212,000000	1,398796
2211,000000	1,359698
2210,000000	1,320532
2209,000000	1,281781
2208,000000	1,244778
2207,000000	1,209833
2206,000000	1,175934
2205,000000	1,142504
2204,000000	1,109816
2203,000000	1,077580
2202,000000	1,044988
2201,000000	1,012411
2200,000000	0,981201
2199,000000	0,951631
2198,000000	0,922869
2197,000000	0,894915
2196,000000	0,868524
2195,000000	0,843194
2194,000000	0,817473
2193,000000	0,791402
2192,000000	0,766353
2191,000000	0,742372
2190,000000	0,718156
2189,000000	0,693890
2188,000000	0,671333
2187,000000	0,650720
2186,000000	0,630265
2185,000000	0,609421
2184,000000	0,589851
2183,000000	0,572188
2182,000000	0,554524
2181,000000	0,535410
2180,000000	0,516075
2179,000000	0,498235
2178,000000	0,481819
2177,000000	0,466014
2176,000000	0,450711
2175,000000	0,435755
2174,000000	0,420543
2173,000000	0,405376
2172,000000	0,391501
2171,000000	0,378999
2170,000000	0,366417
2169,000000	0,353209
2168,000000	0,340589
2167,000000	0,329176
2166,000000	0,317859
2165,000000	0,305981
2164,000000	0,294632
2163,000000	0,284744
2162,000000	0,275673
2161,000000	0,266715
2160,000000	0,258271
2159,000000	0,250533
2158,000000	0,242683
2157,000000	0,234337
2156,000000	0,226230
2155,000000	0,218589
2154,000000	0,210429
2153,000000	0,201398
2152,000000	0,192827
2151,000000	0,185909
2150,000000	0,180228
2149,000000	0,174846
2148,000000	0,169567
2147,000000	0,164487
2146,000000	0,159458
2145,000000	0,154506
2144,000000	0,149739
2143,000000	0,144697
2142,000000	0,139025
2141,000000	0,133660
2140,000000	0,129786
2139,000000	0,126739
2138,000000	0,122711
2137,000000	0,117531
2136,000000	0,112788
2135,000000	0,109218
2134,000000	0,105954
2133,000000	0,102561
2132,000000	0,099715
2131,000000	0,097531
2130,000000	0,095179
2129,000000	0,092474
2128,000000	0,090066
2127,000000	0,087925
2126,000000	0,085308
2125,000000	0,082259
2124,000000	0,079476
2123,000000	0,076676
2122,000000	0,073088
2121,000000	0,069526
2120,000000	0,067660
2119,000000	0,067065
2118,000000	0,065798
2117,000000	0,063691
2116,000000	0,062177
2115,000000	0,061197
2114,000000	0,059163
2113,000000	0,056141
2112,000000	0,054176
2111,000000	0,053817
2110,000000	0,053184
2109,000000	0,051413
2108,000000	0,049895
2107,000000	0,049243
2106,000000	0,047998
2105,000000	0,045549
2104,000000	0,043609
2103,000000	0,043357
2102,000000	0,043574
2101,000000	0,042926
2100,000000	0,041995
2099,000000	0,041582
2098,000000	0,041114
2097,000000	0,040119
2096,000000	0,039357
2095,000000	0,039250
2094,000000	0,038927
2093,000000	0,037855
2092,000000	0,036761
2091,000000	0,036045
2090,000000	0,034901
2089,000000	0,033104
2088,000000	0,031659
2087,000000	0,030879
2086,000000	0,029877
2085,000000	0,028359
2084,000000	0,027316
2083,000000	0,027350
2082,000000	0,027590
2081,000000	0,027208
2080,000000	0,026605
2079,000000	0,026383
2078,000000	0,026481
2077,000000	0,026848
2076,000000	0,027571
2075,000000	0,028109
2074,000000	0,027813
2073,000000	0,027205
2072,000000	0,027274
2071,000000	0,027615
2070,000000	0,026972
2069,000000	0,025521
2068,000000	0,024614
2067,000000	0,024227
2066,000000	0,023078
2065,000000	0,021644
2064,000000	0,022132
2063,000000	0,024669
2062,000000	0,026432
2061,000000	0,025630
2060,000000	0,023559
2059,000000	0,021894
2058,000000	0,020759
2057,000000	0,020211
2056,000000	0,020743
2055,000000	0,021539
2054,000000	0,021143
2053,000000	0,019975
2052,000000	0,019817
2051,000000	0,020914
2050,000000	0,021553
2049,000000	0,020957
2048,000000	0,020267
2047,000000	0,020324
2046,000000	0,020493
2045,000000	0,020504
2044,000000	0,021108
2043,000000	0,021785
2042,000000	0,020899
2041,000000	0,018578
2040,000000	0,017290
2039,000000	0,018595
2038,000000	0,020976
2037,000000	0,022398
2036,000000	0,022579
2035,000000	0,021839
2034,000000	0,020174
2033,000000	0,018316
2032,000000	0,017700
2031,000000	0,018243
2030,000000	0,017977
2029,000000	0,016162
2028,000000	0,014443
2027,000000	0,013898
2026,000000	0,013520
2025,000000	0,012519
2024,000000	0,011883
2023,000000	0,012418
2022,000000	0,013085
2021,000000	0,012910
2020,000000	0,012672
2019,000000	0,013091
2018,000000	0,013477
2017,000000	0,013178
2016,000000	0,012558
2015,000000	0,012113
2014,000000	0,011464
2013,000000	0,010377
2012,000000	0,009575
2011,000000	0,009080
2010,000000	0,008201
2009,000000	0,007100
2008,000000	0,006915
2007,000000	0,007852
2006,000000	0,008376
2005,000000	0,007551
2004,000000	0,006349
2003,000000	0,005953
2002,000000	0,006059
2001,000000	0,005766
2000,000000	0,005163
1999,000000	0,004765
1998,000000	0,004595
1997,000000	0,004481
1996,000000	0,004242
1995,000000	0,003487
1994,000000	0,001630
1993,000000	0,001182
1992,000000	0,002669
1991,000000	0,003063
1990,000000	0,003342
1989,000000	0,004609
1988,000000	0,005799
1987,000000	0,006011
1986,000000	0,005050
1985,000000	0,003888
1984,000000	0,003010
1983,000000	0,002677
1982,000000	0,002561
1981,000000	0,001698
1980,000000	0,001081
1979,000000	0,001381
1978,000000	0,001324
1977,000000	0,000800
1976,000000	0,001196
1975,000000	0,001635
1974,000000	0,001851
1973,000000	0,001609
1972,000000	0,000651
1971,000000	0,001230
1970,000000	0,002271
1969,000000	0,002613
1968,000000	0,002628
1967,000000	0,001881
1966,000000	0,001689
1965,000000	0,002359
1964,000000	0,002252
1963,000000	0,001416
1962,000000	0,001189
1961,000000	0,002228
1960,000000	0,002810
1959,000000	0,001708
1958,000000	0,000786
1957,000000	0,001312
1956,000000	0,001709
1955,000000	0,001548
1954,000000	0,001152
1953,000000	0,001139
1952,000000	0,001925
1951,000000	0,002423
1950,000000	0,003056
1949,000000	0,003835
1948,000000	0,003808
1947,000000	0,003305
1946,000000	0,003536
1945,000000	0,004113
1944,000000	0,003720
1943,000000	0,002485
1942,000000	0,001879
1941,000000	0,002134
1940,000000	0,001665
1939,000000	0,001147
1938,000000	0,000555
1937,000000	0,001628
1936,000000	0,003384
1935,000000	0,003032
1934,000000	0,002747
1933,000000	0,002864
1932,000000	0,002084
1931,000000	0,001023
1930,000000	0,002083
1929,000000	0,003123
1928,000000	0,002460
1927,000000	0,001518
1926,000000	0,002017
1925,000000	0,003221
1924,000000	0,003515
1923,000000	0,003654
1922,000000	0,004328
1921,000000	0,004865
1920,000000	0,005220
1919,000000	0,004814
1918,000000	0,003817
1917,000000	0,002793
1916,000000	0,001840
1915,000000	0,001211
1914,000000	0,001009
1913,000000	0,001681
1912,000000	0,002948
1911,000000	0,003094
1910,000000	0,002576
1909,000000	0,002263
1908,000000	0,001684
1907,000000	0,000628
1906,000000	0,000435
1905,000000	0,001347
1904,000000	0,001993
1903,000000	0,001919
1902,000000	0,001992
1901,000000	0,002255
1900,000000	0,002308
1899,000000	0,002031
1898,000000	0,001876
1897,000000	0,002379
1896,000000	0,002606
1895,000000	0,002714
1894,000000	0,002918
1893,000000	0,002934
1892,000000	0,003354
1891,000000	0,003317
1890,000000	0,002990
1889,000000	0,002625
1888,000000	0,002011
1887,000000	0,002180
1886,000000	0,003205
1885,000000	0,003209
1884,000000	0,001963
1883,000000	0,000649
1882,000000	0,000167
1881,000000	0,000333
1880,000000	0,000707
1879,000000	0,000911
1878,000000	0,001857
1877,000000	0,003702
1876,000000	0,004360
1875,000000	0,002960
1874,000000	0,001451
1873,000000	0,001428
1872,000000	0,001851
1871,000000	0,001501
1870,000000	0,000933
1869,000000	0,000874
1868,000000	0,000727
1867,000000	0,001027
1866,000000	0,001065
1865,000000	0,000880
1864,000000	0,001955
1863,000000	0,001861
1862,000000	0,001547
1861,000000	0,002055
1860,000000	0,002283
1859,000000	0,001964
1858,000000	0,001844
1857,000000	0,002992
1856,000000	0,003792
1855,000000	0,002960
1854,000000	0,001497
1853,000000	0,001545
1852,000000	0,002715
1851,000000	0,002544
1850,000000	0,001184
1849,000000	0,000783
1848,000000	0,001560
1847,000000	0,002062
1846,000000	0,002801
1845,000000	0,001959
1844,000000	0,000364
1843,000000	0,000771
1842,000000	0,001496
1841,000000	0,001874
1840,000000	0,002520
1839,000000	0,002636
1838,000000	0,001973
1837,000000	0,001170
1836,000000	0,001525
1835,000000	0,002757
1834,000000	0,003677
1833,000000	0,003548
1832,000000	0,002808
1831,000000	0,002545
1830,000000	0,002510
1829,000000	0,002180
1828,000000	0,002872
1827,000000	0,003641
1826,000000	0,003121
1825,000000	0,001864
1824,000000	0,000974
1823,000000	0,002173
1822,000000	0,003244
1821,000000	0,002732
1820,000000	0,001802
1819,000000	0,001189
1818,000000	0,001779
1817,000000	0,002766
1816,000000	0,002611
1815,000000	0,001899
1814,000000	0,000952
1813,000000	0,000865
1812,000000	0,002251
1811,000000	0,003149
1810,000000	0,003048
1809,000000	0,003136
1808,000000	0,003299
1807,000000	0,002598
1806,000000	0,002286
1805,000000	0,003008
1804,000000	0,003796
1803,000000	0,003841
1802,000000	0,003243
1801,000000	0,002200
1800,000000	0,000786
1799,000000	0,000943
1798,000000	0,001364
1797,000000	0,000780
1796,000000	0,001770
1795,000000	0,002144
1794,000000	0,001964
1793,000000	0,001598
1792,000000	0,001181
1791,000000	0,001216
1790,000000	0,000632
1789,000000	0,001991
1788,000000	0,003624
1787,000000	0,002854
1786,000000	0,002084
1785,000000	0,002500
1784,000000	0,002419
1783,000000	0,001249
1782,000000	0,000441
1781,000000	0,000670
1780,000000	0,001180
1779,000000	0,001770
1778,000000	0,002173
1777,000000	0,002049
1776,000000	0,001270
1775,000000	0,001252
1774,000000	0,001973
1773,000000	0,002570
1772,000000	0,002271
1771,000000	0,001011
1770,000000	0,000717
1769,000000	0,001636
1768,000000	0,002344
1767,000000	0,002255
1766,000000	0,001570
1765,000000	0,000792
1764,000000	0,000686
1763,000000	0,001114
1762,000000	0,000721
1761,000000	0,000647
1760,000000	0,001440
1759,000000	0,000797
1758,000000	0,000776
1757,000000	0,001586
1756,000000	0,001830
1755,000000	0,001202
1754,000000	0,002852
1753,000000	0,003728
1752,000000	0,002742
1751,000000	0,001525
1750,000000	0,001717
1749,000000	0,003562
1748,000000	0,004648
1747,000000	0,004329
1746,000000	0,003102
1745,000000	0,001972
1744,000000	0,002119
1743,000000	0,001934
1742,000000	0,001024
1741,000000	0,001747
1740,000000	0,002404
1739,000000	0,002115
1738,000000	0,001818
1737,000000	0,001290
1736,000000	0,001085
1735,000000	0,001577
1734,000000	0,002475
1733,000000	0,002795
1732,000000	0,002474
1731,000000	0,002197
1730,000000	0,003652
1729,000000	0,005213
1728,000000	0,005003
1727,000000	0,003857
1726,000000	0,003299
1725,000000	0,004099
1724,000000	0,004501
1723,000000	0,003476
1722,000000	0,002704
1721,000000	0,002836
1720,000000	0,002256
1719,000000	0,000479
1718,000000	0,001112
1717,000000	0,000722
1716,000000	0,000919
1715,000000	0,002312
1714,000000	0,002770
1713,000000	0,002469
1712,000000	0,001931
1711,000000	0,001740
1710,000000	0,001711
1709,000000	0,001089
1708,000000	0,000780
1707,000000	0,001423
1706,000000	0,002469
1705,000000	0,003543
1704,000000	0,003482
1703,000000	0,002025
1702,000000	0,000840
1701,000000	0,000984
1700,000000	0,001866
1699,000000	0,002894
1698,000000	0,003176
1697,000000	0,002463
1696,000000	0,002140
1695,000000	0,002729
1694,000000	0,002646
1693,000000	0,001508
1692,000000	0,001135
1691,000000	0,000783
1690,000000	0,001607
1689,000000	0,002578
1688,000000	0,002738
1687,000000	0,002430
1686,000000	0,002767
1685,000000	0,003556
1684,000000	0,004093
1683,000000	0,004047
1682,000000	0,003532
1681,000000	0,003294
1680,000000	0,002989
1679,000000	0,001788
1678,000000	0,001060
1677,000000	0,001902
1676,000000	0,003142
1675,000000	0,003440
1674,000000	0,003361
1673,000000	0,003966
1672,000000	0,004649
1671,000000	0,004361
1670,000000	0,003527
1669,000000	0,002781
1668,000000	0,001751
1667,000000	0,001689
1666,000000	0,003029
1665,000000	0,003216
1664,000000	0,002411
1663,000000	0,001290
1662,000000	0,000982
1661,000000	0,001971
1660,000000	0,002658
1659,000000	0,002644
1658,000000	0,002142
1657,000000	0,001033
1656,000000	0,000995
1655,000000	0,002277
1654,000000	0,003075
1653,000000	0,003366
1652,000000	0,002673
1651,000000	0,001595
1650,000000	0,001206
1649,000000	0,001993
1648,000000	0,002422
1647,000000	0,001292
1646,000000	0,000647
1645,000000	0,001486
1644,000000	0,001142
1643,000000	0,001410
1642,000000	0,002003
1641,000000	0,001304
1640,000000	0,000645
1639,000000	0,000835
1638,000000	0,000560
1637,000000	0,000817
1636,000000	0,001689
1635,000000	0,000835
1634,000000	0,000936
1633,000000	0,001568
1632,000000	0,001660
1631,000000	0,002709
1630,000000	0,003490
1629,000000	0,003085
1628,000000	0,002382
1627,000000	0,002092
1626,000000	0,001663
1625,000000	0,000513
1624,000000	0,000925
1623,000000	0,001457
1622,000000	0,001331
1621,000000	0,001762
1620,000000	0,002762
1619,000000	0,003608
1618,000000	0,003739
1617,000000	0,003042
1616,000000	0,002092
1615,000000	0,002047
1614,000000	0,002867
1613,000000	0,003494
1612,000000	0,003474
1611,000000	0,003246
1610,000000	0,003230
1609,000000	0,002972
1608,000000	0,002248
1607,000000	0,001964
1606,000000	0,002263
1605,000000	0,001867
1604,000000	0,001343
1603,000000	0,001337
1602,000000	0,001988
1601,000000	0,002890
1600,000000	0,003212
1599,000000	0,003359
1598,000000	0,003664
1597,000000	0,003485
1596,000000	0,002464
1595,000000	0,001122
1594,000000	0,000858
1593,000000	0,001691
1592,000000	0,001834
1591,000000	0,001110
1590,000000	0,000427
1589,000000	0,000762
1588,000000	0,001454
1587,000000	0,000605
1586,000000	0,000824
1585,000000	0,001390
1584,000000	0,000690
1583,000000	0,000681
1582,000000	0,001772
1581,000000	0,000570
1580,000000	0,000896
1579,000000	0,001692
1578,000000	0,001401
1577,000000	0,001886
1576,000000	0,002383
1575,000000	0,001291
1574,000000	0,000985
1573,000000	0,002422
1572,000000	0,002830
1571,000000	0,002560
1570,000000	0,002291
1569,000000	0,002323
1568,000000	0,002525
1567,000000	0,002628
1566,000000	0,002529
1565,000000	0,001804
1564,000000	0,002798
1563,000000	0,004085
1562,000000	0,003770
1561,000000	0,002773
1560,000000	0,001662
1559,000000	0,000669
1558,000000	0,001216
1557,000000	0,001824
1556,000000	0,002320
1555,000000	0,003293
1554,000000	0,004587
1553,000000	0,005254
1552,000000	0,004267
1551,000000	0,002211
1550,000000	0,001086
1549,000000	0,001579
1548,000000	0,001956
1547,000000	0,001168
1546,000000	0,000809
1545,000000	0,002018
1544,000000	0,002049
1543,000000	0,001929
1542,000000	0,002520
1541,000000	0,002725
1540,000000	0,003334
1539,000000	0,003603
1538,000000	0,003592
1537,000000	0,003179
1536,000000	0,002209
1535,000000	0,001590
1534,000000	0,001829
1533,000000	0,002528
1532,000000	0,002898
1531,000000	0,002620
1530,000000	0,002291
1529,000000	0,002299
1528,000000	0,002110
1527,000000	0,001301
1526,000000	0,000393
1525,000000	0,000676
1524,000000	0,000986
1523,000000	0,000389
1522,000000	0,000432
1521,000000	0,000987
1520,000000	0,002305
1519,000000	0,002294
1518,000000	0,001294
1517,000000	0,001281
1516,000000	0,001809
1515,000000	0,001682
1514,000000	0,001454
1513,000000	0,001864
1512,000000	0,001918
1511,000000	0,001322
1510,000000	0,000966
1509,000000	0,001110
1508,000000	0,001273
1507,000000	0,001538
1506,000000	0,002179
1505,000000	0,002897
1504,000000	0,002727
1503,000000	0,001981
1502,000000	0,002079
1501,000000	0,002144
1500,000000	0,002113
1499,000000	0,002509
1498,000000	0,002692
1497,000000	0,002702
1496,000000	0,002223
1495,000000	0,001216
1494,000000	0,000944
1493,000000	0,001287
1492,000000	0,001295
1491,000000	0,001095
1490,000000	0,001076
1489,000000	0,000517
1488,000000	0,000677
1487,000000	0,002057
1486,000000	0,002549
1485,000000	0,002353
1484,000000	0,001868
1483,000000	0,001209
1482,000000	0,001023
1481,000000	0,001452
1480,000000	0,000895
1479,000000	0,000663
1478,000000	0,001289
1477,000000	0,001235
1476,000000	0,001357
1475,000000	0,000420
1474,000000	0,001168
1473,000000	0,001709
1472,000000	0,001547
1471,000000	0,001543
1470,000000	0,002056
1469,000000	0,002753
1468,000000	0,002887
1467,000000	0,002373
1466,000000	0,001811
1465,000000	0,001349
1464,000000	0,001135
1463,000000	0,001110
1462,000000	0,001474
1461,000000	0,002239
1460,000000	0,002002
1459,000000	0,001730
1458,000000	0,001788
1457,000000	0,001318
1456,000000	0,001011
1455,000000	0,000419
1454,000000	0,001174
1453,000000	0,002581
1452,000000	0,003095
1451,000000	0,002655
1450,000000	0,001304
1449,000000	0,001073
1448,000000	0,002292
1447,000000	0,002293
1446,000000	0,001662
1445,000000	0,001042
1444,000000	0,001657
1443,000000	0,001705
1442,000000	0,001940
1441,000000	0,002176
1440,000000	0,001471
1439,000000	0,000396
1438,000000	0,001882
1437,000000	0,002936
1436,000000	0,002747
1435,000000	0,002467
1434,000000	0,003337
1433,000000	0,003699
1432,000000	0,003159
1431,000000	0,002113
1430,000000	0,001955
1429,000000	0,002639
1428,000000	0,002595
1427,000000	0,002204
1426,000000	0,002977
1425,000000	0,003647
1424,000000	0,003676
1423,000000	0,002757
1422,000000	0,002061
1421,000000	0,002108
1420,000000	0,001493
1419,000000	0,001346
1418,000000	0,002266
1417,000000	0,001026
1416,000000	0,000705
1415,000000	0,001330
1414,000000	0,001612
1413,000000	0,002520
1412,000000	0,002993
1411,000000	0,002418
1410,000000	0,001847
1409,000000	0,002075
1408,000000	0,001966
1407,000000	0,001803
1406,000000	0,002406
1405,000000	0,003436
1404,000000	0,003878
1403,000000	0,003716
1402,000000	0,003872
1401,000000	0,004388
1400,000000	0,004139
1399,000000	0,002927
1398,000000	0,002275
1397,000000	0,002688
1396,000000	0,002773
1395,000000	0,001819
1394,000000	0,000926
1393,000000	0,000883
1392,000000	0,001147
1391,000000	0,002231
1390,000000	0,002572
1389,000000	0,001633
1388,000000	0,001689
1387,000000	0,002106
1386,000000	0,002440
1385,000000	0,002394
1384,000000	0,002087
1383,000000	0,001961
1382,000000	0,002071
1381,000000	0,002105
1380,000000	0,001662
1379,000000	0,001992
1378,000000	0,002299
1377,000000	0,001172
1376,000000	0,000238
1375,000000	0,001059
1374,000000	0,001997
1373,000000	0,003066
1372,000000	0,003139
1371,000000	0,001866
1370,000000	0,000926
1369,000000	0,000728
1368,000000	0,000895
1367,000000	0,000903
1366,000000	0,000800
1365,000000	0,001154
1364,000000	0,001514
1363,000000	0,000743
1362,000000	0,000280
1361,000000	0,000932
1360,000000	0,002263
1359,000000	0,002742
1358,000000	0,002604
1357,000000	0,002637
1356,000000	0,002852
1355,000000	0,003176
1354,000000	0,003177
1353,000000	0,002726
1352,000000	0,002809
1351,000000	0,002988
1350,000000	0,003313
1349,000000	0,003690
1348,000000	0,003918
1347,000000	0,003640
1346,000000	0,003211
1345,000000	0,003014
1344,000000	0,002477
1343,000000	0,002474
1342,000000	0,003354
1341,000000	0,003153
1340,000000	0,002545
1339,000000	0,001669
1338,000000	0,001081
1337,000000	0,001207
1336,000000	0,001020
1335,000000	0,000918
1334,000000	0,001138
1333,000000	0,001446
1332,000000	0,001408
1331,000000	0,001035
1330,000000	0,000605
1329,000000	0,001192
1328,000000	0,002036
1327,000000	0,001593
1326,000000	0,001038
1325,000000	0,000548
1324,000000	0,002728
1323,000000	0,003311
1322,000000	0,003285
1321,000000	0,004021
1320,000000	0,004851
1319,000000	0,005155
1318,000000	0,004595
1317,000000	0,003430
1316,000000	0,002284
1315,000000	0,001909
1314,000000	0,002210
1313,000000	0,002378
1312,000000	0,001853
1311,000000	0,001276
1310,000000	0,001477
1309,000000	0,002516
1308,000000	0,003037
1307,000000	0,002150
1306,000000	0,001670
1305,000000	0,001998
1304,000000	0,001558
1303,000000	0,002099
1302,000000	0,003761
1301,000000	0,004802
1300,000000	0,004508
1299,000000	0,003198
1298,000000	0,002219
1297,000000	0,001587
1296,000000	0,000522
1295,000000	0,000781
1294,000000	0,000661
1293,000000	0,001679
1292,000000	0,002558
1291,000000	0,002201
1290,000000	0,001877
1289,000000	0,002299
1288,000000	0,002319
1287,000000	0,001676
1286,000000	0,000989
1285,000000	0,001687
1284,000000	0,003616
1283,000000	0,004231
1282,000000	0,003760
1281,000000	0,003115
1280,000000	0,002014
1279,000000	0,000798
1278,000000	0,001264
1277,000000	0,001304
1276,000000	0,000686
1275,000000	0,000280
1274,000000	0,000721
1273,000000	0,000984
1272,000000	0,001005
1271,000000	0,000919
1270,000000	0,000759
1269,000000	0,000748
1268,000000	0,001477
1267,000000	0,001471
1266,000000	0,001474
1265,000000	0,001802
1264,000000	0,001848
1263,000000	0,001605
1262,000000	0,001274
1261,000000	0,001754
1260,000000	0,002394
1259,000000	0,002009
1258,000000	0,001460
1257,000000	0,001493
1256,000000	0,001635
1255,000000	0,001429
1254,000000	0,001092
1253,000000	0,001194
1252,000000	0,001541
1251,000000	0,001496
1250,000000	0,001368
1249,000000	0,001543
1248,000000	0,001841
1247,000000	0,001899
1246,000000	0,002124
1245,000000	0,002320
1244,000000	0,002953
1243,000000	0,002698
1242,000000	0,001920
1241,000000	0,001815
1240,000000	0,002386
1239,000000	0,002750
1238,000000	0,002737
1237,000000	0,002393
1236,000000	0,001483
1235,000000	0,002432
1234,000000	0,003836
1233,000000	0,003125
1232,000000	0,001420
1231,000000	0,000623
1230,000000	0,000967
1229,000000	0,001542
1228,000000	0,002015
1227,000000	0,002083
1226,000000	0,001874
1225,000000	0,001909
1224,000000	0,002137
1223,000000	0,002624
1222,000000	0,003156
1221,000000	0,002931
1220,000000	0,002724
1219,000000	0,002492
1218,000000	0,002897
1217,000000	0,003237
1216,000000	0,002796
1215,000000	0,002069
1214,000000	0,001963
1213,000000	0,002445
1212,000000	0,002687
1211,000000	0,002891
1210,000000	0,002635
1209,000000	0,001476
1208,000000	0,001237
1207,000000	0,002174
1206,000000	0,001999
1205,000000	0,001353
1204,000000	0,002892
1203,000000	0,003056
1202,000000	0,001685
1201,000000	0,000801
1200,000000	0,000588
1199,000000	0,000451
1198,000000	0,001109
1197,000000	0,002523
1196,000000	0,003660
1195,000000	0,003897
1194,000000	0,003995
1193,000000	0,003590
1192,000000	0,002080
1191,000000	0,001032
1190,000000	0,001462
1189,000000	0,000638
1188,000000	0,000964
1187,000000	0,001700
1186,000000	0,001806
1185,000000	0,002697
1184,000000	0,002815
1183,000000	0,002045
1182,000000	0,001693
1181,000000	0,001967
1180,000000	0,000944
1179,000000	0,000659
1178,000000	0,001425
1177,000000	0,000527
1176,000000	0,000552
1175,000000	0,001085
1174,000000	0,001654
1173,000000	0,002523
1172,000000	0,002883
1171,000000	0,002187
1170,000000	0,001001
1169,000000	0,000854
1168,000000	0,000963
1167,000000	0,000733
1166,000000	0,000857
1165,000000	0,001359
1164,000000	0,002056
1163,000000	0,002420
1162,000000	0,002934
1161,000000	0,002877
1160,000000	0,001415
1159,000000	0,000638
1158,000000	0,001559
1157,000000	0,001689
1156,000000	0,002434
1155,000000	0,002574
1154,000000	0,002486
1153,000000	0,002544
1152,000000	0,002222
1151,000000	0,001528
1150,000000	0,000764
1149,000000	0,000282
1148,000000	0,001233
1147,000000	0,001293
1146,000000	0,001884
1145,000000	0,001936
1144,000000	0,001590
1143,000000	0,001127
1142,000000	0,001175
1141,000000	0,001645
1140,000000	0,002519
1139,000000	0,002903
1138,000000	0,002663
1137,000000	0,002053
1136,000000	0,001322
1135,000000	0,000382
1134,000000	0,000680
1133,000000	0,001296
1132,000000	0,001810
1131,000000	0,001637
1130,000000	0,001337
1129,000000	0,002194
1128,000000	0,002838
1127,000000	0,002261
1126,000000	0,001632
1125,000000	0,001966
1124,000000	0,002261
1123,000000	0,002026
1122,000000	0,002631
1121,000000	0,003350
1120,000000	0,003560
1119,000000	0,003664
1118,000000	0,003934
1117,000000	0,004238
1116,000000	0,003890
1115,000000	0,002625
1114,000000	0,001908
1113,000000	0,001757
1112,000000	0,001041
1111,000000	0,000676
1110,000000	0,000573
1109,000000	0,001067
1108,000000	0,001505
1107,000000	0,001430
1106,000000	0,001497
1105,000000	0,002127
1104,000000	0,002618
1103,000000	0,002760
1102,000000	0,003308
1101,000000	0,004136
1100,000000	0,004395
1099,000000	0,003986
1098,000000	0,003331
1097,000000	0,002508
1096,000000	0,001742
1095,000000	0,001329
1094,000000	0,001679
1093,000000	0,002798
1092,000000	0,003657
1091,000000	0,004067
1090,000000	0,004351
1089,000000	0,004027
1088,000000	0,002820
1087,000000	0,001776
1086,000000	0,002442
1085,000000	0,003500
1084,000000	0,003907
1083,000000	0,003136
1082,000000	0,002068
1081,000000	0,001109
1080,000000	0,000484
1079,000000	0,000460
1078,000000	0,000872
1077,000000	0,000865
1076,000000	0,001902
1075,000000	0,002504
1074,000000	0,002566
1073,000000	0,003044
1072,000000	0,003570
1071,000000	0,003770
1070,000000	0,003686
1069,000000	0,003273
1068,000000	0,002399
1067,000000	0,001458
1066,000000	0,001484
1065,000000	0,002565
1064,000000	0,003373
1063,000000	0,003128
1062,000000	0,002839
1061,000000	0,002918
1060,000000	0,002645
1059,000000	0,002484
1058,000000	0,002407
1057,000000	0,001125
1056,000000	0,000536
1055,000000	0,001499
1054,000000	0,001494
1053,000000	0,002168
1052,000000	0,003092
1051,000000	0,003074
1050,000000	0,002452
1049,000000	0,001922
1048,000000	0,001464
1047,000000	0,000987
1046,000000	0,001330
1045,000000	0,002038
1044,000000	0,001932
1043,000000	0,001371
1042,000000	0,001372
1041,000000	0,002987
1040,000000	0,004315
1039,000000	0,004225
1038,000000	0,003874
1037,000000	0,003479
1036,000000	0,002514
1035,000000	0,001980
1034,000000	0,002378
1033,000000	0,003157
1032,000000	0,003446
1031,000000	0,002728
1030,000000	0,001935
1029,000000	0,002018
1028,000000	0,001973
1027,000000	0,001823
1026,000000	0,001380
1025,000000	0,001890
1024,000000	0,003091
1023,000000	0,003294
1022,000000	0,003389
1021,000000	0,003432
1020,000000	0,002980
1019,000000	0,002625
1018,000000	0,003209
1017,000000	0,003545
1016,000000	0,002101
1015,000000	0,000679
1014,000000	0,002389
1013,000000	0,003041
1012,000000	0,003302
1011,000000	0,002255
1010,000000	0,000834
1009,000000	0,001392
1008,000000	0,002025
1007,000000	0,001643
1006,000000	0,001459
1005,000000	0,003019
1004,000000	0,004595
1003,000000	0,004698
1002,000000	0,003571
1001,000000	0,002252
1000,000000	0,001353
999,000000	0,001654
998,000000	0,001989
997,000000	0,001516
996,000000	0,001355
995,000000	0,001630
994,000000	0,001771
993,000000	0,001805
992,000000	0,002014
991,000000	0,003009
990,000000	0,004252
989,000000	0,004835
988,000000	0,004230
987,000000	0,002973
986,000000	0,002875
985,000000	0,004185
984,000000	0,005345
983,000000	0,005427
982,000000	0,004845
981,000000	0,004443
980,000000	0,003977
979,000000	0,002857
978,000000	0,002387
977,000000	0,003082
976,000000	0,003516
975,000000	0,003037
974,000000	0,002777
973,000000	0,003331
972,000000	0,003724
971,000000	0,003317
970,000000	0,002979
969,000000	0,003304
968,000000	0,003236
967,000000	0,002200
966,000000	0,001622
965,000000	0,002439
964,000000	0,003238
963,000000	0,002339
962,000000	0,000585
961,000000	0,001089
960,000000	0,001337
959,000000	0,001494
958,000000	0,002032
957,000000	0,002724
956,000000	0,002752
955,000000	0,003250
954,000000	0,005172
953,000000	0,006430
952,000000	0,006583
951,000000	0,005501
950,000000	0,003827
949,000000	0,003125
948,000000	0,003449
947,000000	0,003245
946,000000	0,002393
945,000000	0,001788
944,000000	0,001814
943,000000	0,002318
942,000000	0,002933
941,000000	0,003225
940,000000	0,002974
939,000000	0,002271
938,000000	0,001108
937,000000	0,001047
936,000000	0,002130
935,000000	0,002306
934,000000	0,003418
933,000000	0,004612
932,000000	0,004349
931,000000	0,002919
930,000000	0,002048
929,000000	0,001771
928,000000	0,002065
927,000000	0,002031
926,000000	0,001499
925,000000	0,001212
924,000000	0,001823
923,000000	0,002418
922,000000	0,002433
921,000000	0,001984
920,000000	0,001097
919,000000	0,000833
918,000000	0,000897
917,000000	0,001284
916,000000	0,001929
915,000000	0,002558
914,000000	0,003058
913,000000	0,003099
912,000000	0,002917
911,000000	0,002514
910,000000	0,001664
909,000000	0,001048
908,000000	0,000668
907,000000	0,000595
906,000000	0,001112
905,000000	0,001375
904,000000	0,001028
903,000000	0,000707
902,000000	0,002110
901,000000	0,002919
900,000000	0,002692
899,000000	0,002290
898,000000	0,002336
897,000000	0,002278
896,000000	0,001468
895,000000	0,000562
894,000000	0,001989
893,000000	0,002969
892,000000	0,002611
891,000000	0,001305
890,000000	0,000512
889,000000	0,000958
888,000000	0,001601
887,000000	0,002510
886,000000	0,003349
885,000000	0,003529
884,000000	0,002623
883,000000	0,001467
882,000000	0,001125
881,000000	0,001569
880,000000	0,002805
879,000000	0,003386
878,000000	0,003332
877,000000	0,003018
876,000000	0,002738
875,000000	0,003114
874,000000	0,004367
873,000000	0,005696
872,000000	0,005756
871,000000	0,004389
870,000000	0,003073
869,000000	0,002205
868,000000	0,001509
867,000000	0,001495
866,000000	0,002009
865,000000	0,002840
864,000000	0,003329
863,000000	0,003813
862,000000	0,004489
861,000000	0,004696
860,000000	0,003725
859,000000	0,002110
858,000000	0,001250
857,000000	0,001456
856,000000	0,001609
855,000000	0,001390
854,000000	0,001679
853,000000	0,002634
852,000000	0,003178
851,000000	0,002444
850,000000	0,001236
849,000000	0,001067
848,000000	0,001688
847,000000	0,001748
846,000000	0,001603
845,000000	0,001945
844,000000	0,002378
843,000000	0,002275
842,000000	0,002401
841,000000	0,002825
840,000000	0,002818
839,000000	0,002420
838,000000	0,002061
837,000000	0,001445
836,000000	0,000952
835,000000	0,001235
834,000000	0,000999
833,000000	0,000914
832,000000	0,001962
831,000000	0,002904
830,000000	0,003602
829,000000	0,004056
828,000000	0,003455
827,000000	0,001987
826,000000	0,001326
825,000000	0,002140
824,000000	0,002792
823,000000	0,002861
822,000000	0,002684
821,000000	0,002351
820,000000	0,002124
819,000000	0,002497
818,000000	0,002906
817,000000	0,002948
816,000000	0,003110
815,000000	0,003132
814,000000	0,003097
813,000000	0,003182
812,000000	0,002965
811,000000	0,002726
810,000000	0,002650
809,000000	0,002590
808,000000	0,002465
807,000000	0,002127
806,000000	0,001942
805,000000	0,001985
804,000000	0,001765
803,000000	0,001040
802,000000	0,001309
801,000000	0,002247
800,000000	0,002513
799,000000	0,001820
798,000000	0,001239
797,000000	0,000944
796,000000	0,000361
795,000000	0,000324
794,000000	0,000345
793,000000	0,001588
792,000000	0,002519
791,000000	0,002545
790,000000	0,002449
789,000000	0,002858
788,000000	0,002936
787,000000	0,002292
786,000000	0,001507
785,000000	0,001082
784,000000	0,000806
783,000000	0,000334
782,000000	0,000506
781,000000	0,001420
780,000000	0,002126
779,000000	0,002132
778,000000	0,001960
777,000000	0,001952
776,000000	0,001638
775,000000	0,000865
774,000000	0,000548
773,000000	0,001359
772,000000	0,002475
771,000000	0,002915
770,000000	0,002825
769,000000	0,002554
768,000000	0,002131
767,000000	0,001857
766,000000	0,002084
765,000000	0,002861
764,000000	0,003340
763,000000	0,002894
762,000000	0,001988
761,000000	0,001401
760,000000	0,001570
759,000000	0,001753
758,000000	0,001820
757,000000	0,001917
756,000000	0,001612
755,000000	0,000866
754,000000	0,000812
753,000000	0,001048
752,000000	0,001157
751,000000	0,001328
750,000000	0,002257
749,000000	0,004111
748,000000	0,004873
747,000000	0,004005
746,000000	0,003040
745,000000	0,002861
744,000000	0,002909
743,000000	0,002853
742,000000	0,003211
741,000000	0,003795
740,000000	0,003858
739,000000	0,003024
738,000000	0,002025
737,000000	0,001051
736,000000	0,000465
735,000000	0,001124
734,000000	0,001165
733,000000	0,000922
732,000000	0,001148
731,000000	0,001564
730,000000	0,001498
729,000000	0,000730
728,000000	0,000388
727,000000	0,001694
726,000000	0,002745
725,000000	0,003591
724,000000	0,003593
723,000000	0,003003
722,000000	0,002671
721,000000	0,002281
720,000000	0,001672
719,000000	0,001339
718,000000	0,000784
717,000000	0,001239
716,000000	0,002688
715,000000	0,003551
714,000000	0,004315
713,000000	0,004749
712,000000	0,004574
711,000000	0,004129
710,000000	0,004133
709,000000	0,004318
708,000000	0,003915
707,000000	0,003026
706,000000	0,002363
705,000000	0,001348
704,000000	0,000345
703,000000	0,000547
702,000000	0,001544
701,000000	0,001367
700,000000	0,000480
699,000000	0,000640
698,000000	0,000965
697,000000	0,000933
696,000000	0,000428
695,000000	0,000156
694,000000	0,000966
693,000000	0,002526
692,000000	0,003462
691,000000	0,003235
690,000000	0,002599
689,000000	0,001907
688,000000	0,001253
687,000000	0,000784
686,000000	0,000843
685,000000	0,002202
684,000000	0,003489
683,000000	0,003700
682,000000	0,003425
681,000000	0,003255
680,000000	0,002611
679,000000	0,001079
678,000000	0,000576
677,000000	0,001429
676,000000	0,001732
675,000000	0,001678
674,000000	0,001093
673,000000	0,000701
672,000000	0,001171
671,000000	0,001617
670,000000	0,002361
669,000000	0,001903
668,000000	0,000779
667,000000	0,000782
666,000000	0,000579
665,000000	0,001606
664,000000	0,001668
663,000000	0,000850
662,000000	0,000552
661,000000	0,002239
660,000000	0,003767
659,000000	0,004017
658,000000	0,003685
657,000000	0,003721
656,000000	0,003585
655,000000	0,002605
654,000000	0,001635
653,000000	0,001688
652,000000	0,002087
651,000000	0,001501
650,000000	0,001249
649,000000	0,002891
648,000000	0,003466
647,000000	0,002805
646,000000	0,002074
645,000000	0,001659
644,000000	0,001834
643,000000	0,001532
642,000000	0,000897
641,000000	0,000493
640,000000	0,000650
639,000000	0,001370
638,000000	0,001234
637,000000	0,001142
636,000000	0,001703
635,000000	0,002180
634,000000	0,002437
633,000000	0,002956
632,000000	0,002773
631,000000	0,001615
630,000000	0,000416
629,000000	0,000693
628,000000	0,001997
627,000000	0,003082
626,000000	0,003031
625,000000	0,002350
624,000000	0,001952
623,000000	0,001836
622,000000	0,001481
621,000000	0,001798
620,000000	0,002861
619,000000	0,003012
618,000000	0,001968
617,000000	0,001233
616,000000	0,001482
615,000000	0,001124
614,000000	0,000893
613,000000	0,001712
612,000000	0,002278
611,000000	0,002246
610,000000	0,002244
609,000000	0,003163
608,000000	0,003267
607,000000	0,002195
606,000000	0,001645
605,000000	0,001655
604,000000	0,001805
603,000000	0,001317
602,000000	0,000873
601,000000	0,001141
600,000000	0,001650
599,000000	0,002024
598,000000	0,002184
597,000000	0,002484
596,000000	0,002507
595,000000	0,001846
594,000000	0,001210
593,000000	0,001186
592,000000	0,001527
591,000000	0,001488
590,000000	0,001455
589,000000	0,001585
588,000000	0,001411
587,000000	0,000875
586,000000	0,000980
585,000000	0,001757
584,000000	0,002402
583,000000	0,002611
582,000000	0,001741
581,000000	0,000177
580,000000	0,001560
579,000000	0,001390
578,000000	0,001293
577,000000	0,001850
576,000000	0,002369
575,000000	0,002445
574,000000	0,002369
573,000000	0,002373
572,000000	0,002081
571,000000	0,001658
570,000000	0,001958
569,000000	0,003101
568,000000	0,003843
567,000000	0,003424
566,000000	0,002941
565,000000	0,003298
564,000000	0,003761
563,000000	0,003213
562,000000	0,001798
561,000000	0,000740
560,000000	0,000807
559,000000	0,001136
558,000000	0,001534
557,000000	0,001953
556,000000	0,001662
555,000000	0,000803
554,000000	0,001145
553,000000	0,001504
552,000000	0,001562
551,000000	0,001180
550,000000	0,000770
549,000000	0,001734
548,000000	0,002012
547,000000	0,001324
546,000000	0,001312
545,000000	0,001793
544,000000	0,001946
543,000000	0,001598
542,000000	0,001162
541,000000	0,001049
540,000000	0,000963
539,000000	0,000585
538,000000	0,000327
537,000000	0,000427
536,000000	0,000970
535,000000	0,001622
534,000000	0,002595
533,000000	0,003194
532,000000	0,002407
531,000000	0,000731
530,000000	0,000610
529,000000	0,001264
528,000000	0,001831
527,000000	0,002256
526,000000	0,001848
525,000000	0,000493
524,000000	0,000862
523,000000	0,001260
522,000000	0,001131
521,000000	0,000726
520,000000	0,001169
519,000000	0,001537
518,000000	0,001731
517,000000	0,002184
516,000000	0,002192
515,000000	0,001527
514,000000	0,001529
513,000000	0,001448
512,000000	0,001595
511,000000	0,001909
510,000000	0,001968
509,000000	0,001483
508,000000	0,000696
507,000000	0,000302
506,000000	0,000802
505,000000	0,000787
504,000000	0,001813
503,000000	0,002483
502,000000	0,002947
501,000000	0,003243
500,000000	0,002903
499,000000	0,002155
498,000000	0,001868
497,000000	0,002007
496,000000	0,001572
495,000000	0,001012
494,000000	0,000424
493,000000	0,001177
492,000000	0,003082
491,000000	0,003611
490,000000	0,003260
489,000000	0,003284
488,000000	0,003077
487,000000	0,001660
486,000000	0,001512
485,000000	0,001869
484,000000	0,001045
483,000000	0,000734
482,000000	0,001077
481,000000	0,001184
480,000000	0,000561
479,000000	0,000482
478,000000	0,000720
477,000000	0,000904
476,000000	0,000885
475,000000	0,000328
474,000000	0,001347
473,000000	0,002079
472,000000	0,002328
471,000000	0,001682
470,000000	0,001150
469,000000	0,001563
468,000000	0,001979
467,000000	0,001518
466,000000	0,001214
465,000000	0,001292
464,000000	0,001011
463,000000	0,000460
462,000000	0,001263
461,000000	0,002424
460,000000	0,002422
459,000000	0,001251
458,000000	0,000674
457,000000	0,001615
456,000000	0,002576
455,000000	0,002059
454,000000	0,001663
453,000000	0,002534
452,000000	0,002486
451,000000	0,001631
450,000000	0,001225
449,000000	0,001137
448,000000	0,000929
447,000000	0,001471
446,000000	0,001924
445,000000	0,000804
444,000000	0,001386
443,000000	0,001951
442,000000	0,002641
441,000000	0,003857
440,000000	0,004343
439,000000	0,003382
438,000000	0,001818
437,000000	0,001482
436,000000	0,002258
435,000000	0,002314
434,000000	0,001706
433,000000	0,001150
432,000000	0,000638
431,000000	0,000574
430,000000	0,000886
429,000000	0,001184
428,000000	0,001332
427,000000	0,001574
426,000000	0,002034
425,000000	0,002417
424,000000	0,002471
423,000000	0,002408
422,000000	0,002926
421,000000	0,004342
420,000000	0,006244
419,000000	0,007524
418,000000	0,007889
417,000000	0,007747
416,000000	0,006765
415,000000	0,004790
414,000000	0,003392
413,000000	0,003207
412,000000	0,003161
411,000000	0,003564
410,000000	0,003827
409,000000	0,003076
408,000000	0,002399
407,000000	0,002858
406,000000	0,003803
405,000000	0,004371
404,000000	0,004672
403,000000	0,004663
402,000000	0,004705
401,000000	0,006031
400,000000	0,007856
399,000000	0,008151
398,000000	0,007261
397,000000	0,006576
396,000000	0,005901
395,000000	0,004597
394,000000	0,003930
393,000000	0,005065
392,000000	0,006566
391,000000	0,007103
390,000000	0,006965
389,000000	0,006304
388,000000	0,005120
387,000000	0,004074
386,000000	0,003344
385,000000	0,002457
384,000000	0,002072
383,000000	0,002882
382,000000	0,004441
381,000000	0,006597
380,000000	0,008992
379,000000	0,010069
378,000000	0,009525
377,000000	0,008939
376,000000	0,009557
375,000000	0,010257
374,000000	0,009953
373,000000	0,008971
372,000000	0,007978
371,000000	0,007919
370,000000	0,008815
369,000000	0,009663
368,000000	0,010249
367,000000	0,010761
366,000000	0,010928
365,000000	0,010427
364,000000	0,009728
363,000000	0,009627
362,000000	0,010391
361,000000	0,011896
360,000000	0,013342
359,000000	0,013692
358,000000	0,013396
357,000000	0,013827
356,000000	0,015022
355,000000	0,015709
354,000000	0,015715
353,000000	0,015718
352,000000	0,015504
351,000000	0,014336
350,000000	0,012568
349,000000	0,011527
348,000000	0,012065
347,000000	0,013349
346,000000	0,013745
345,000000	0,012851
344,000000	0,011975
343,000000	0,011877
342,000000	0,012339
341,000000	0,013118
340,000000	0,013612
339,000000	0,012990
338,000000	0,011878
337,000000	0,012357
336,000000	0,014156
335,000000	0,015249
334,000000	0,015320
333,000000	0,014684
332,000000	0,013373
331,000000	0,012822
330,000000	0,013788
329,000000	0,014211
328,000000	0,013620
327,000000	0,013266
326,000000	0,013595
325,000000	0,013674
324,000000	0,013504
323,000000	0,014103
322,000000	0,015378
321,000000	0,016375
320,000000	0,016865
319,000000	0,017242
318,000000	0,017845
317,000000	0,018465
316,000000	0,017950
315,000000	0,015625
314,000000	0,013165
313,000000	0,013246
312,000000	0,015367
311,000000	0,017136
310,000000	0,017770
309,000000	0,017687
308,000000	0,017093
307,000000	0,015907
306,000000	0,015013
305,000000	0,015966
304,000000	0,018500
303,000000	0,021307
302,000000	0,023556
301,000000	0,024948
300,000000	0,025790
299,000000	0,026484
298,000000	0,027271
297,000000	0,027861
296,000000	0,027652
295,000000	0,027271
294,000000	0,027979
293,000000	0,029266
292,000000	0,029708
291,000000	0,029583
290,000000	0,029842
289,000000	0,029904
288,000000	0,029576
287,000000	0,029345
286,000000	0,028144
285,000000	0,025111
284,000000	0,022808
283,000000	0,024052
282,000000	0,026847
281,000000	0,028022
280,000000	0,026995
279,000000	0,025180
278,000000	0,024127
277,000000	0,023817
276,000000	0,023226
275,000000	0,022607
274,000000	0,022948
273,000000	0,023411
272,000000	0,022275
271,000000	0,019773
270,000000	0,017905
269,000000	0,016879
268,000000	0,015906
267,000000	0,015356
266,000000	0,015293
265,000000	0,015558
264,000000	0,016677
263,000000	0,018158
262,000000	0,018615
261,000000	0,017532
260,000000	0,015494
259,000000	0,013243
258,000000	0,011818
257,000000	0,012194
256,000000	0,013419
255,000000	0,013970
254,000000	0,013962
253,000000	0,013644
252,000000	0,012351
251,000000	0,010337
250,000000	0,009144
249,000000	0,008618
248,000000	0,007967
247,000000	0,007498
246,000000	0,007443
245,000000	0,007173
244,000000	0,006854
243,000000	0,007343
242,000000	0,008489
241,000000	0,009502
240,000000	0,009943
239,000000	0,009645
238,000000	0,009051
237,000000	0,008741
236,000000	0,008639
235,000000	0,008162
234,000000	0,007716
233,000000	0,007938
232,000000	0,008187
231,000000	0,008067
230,000000	0,008522
229,000000	0,009544
228,000000	0,009975
227,000000	0,009979
226,000000	0,010960
225,000000	0,012269
224,000000	0,012712
223,000000	0,012701
222,000000	0,012574
221,000000	0,011970
220,000000	0,011145
219,000000	0,010449
218,000000	0,009794
217,000000	0,009470
216,000000	0,009406
215,000000	0,008804
214,000000	0,008254
213,000000	0,009269
212,000000	0,010827
211,000000	0,010736
210,000000	0,009157
209,000000	0,007501
208,000000	0,006301
207,000000	0,005673
206,000000	0,006427
205,000000	0,007660
204,000000	0,008279
203,000000	0,008827
202,000000	0,009490
201,000000	0,009585
200,000000	0,009513
