PE IR       SUBTECH     SPECTRUM    ASCII       PEDS        4.00        
   -1
NaCl blocking filter.ASC
25/04/22
09:37:51.00
25/04/22
09:37:51.00
Praktikum
Sample 016 By Praktikum date Dienstag, April 22 2025
200,000000
#HDR
-1
-1
#GR
cm-1
EGY
1.0
0.0
4000,000000
-1,000000
3801
8
65,027986
0,001923
#DATA
4000,000000	45,983849
3999,000000	45,995296
3998,000000	45,995244
3997,000000	45,989265
3996,000000	45,987840
3995,000000	45,996366
3994,000000	46,009738
3993,000000	46,020717
3992,000000	46,031611
3991,000000	46,053240
3990,000000	46,091432
3989,000000	46,138676
3988,000000	46,180960
3987,000000	46,209790
3986,000000	46,225587
3985,000000	46,233378
3984,000000	46,239624
3983,000000	46,251332
3982,000000	46,272463
3981,000000	46,298681
3980,000000	46,318252
3979,000000	46,320409
3978,000000	46,304142
3977,000000	46,279510
3976,000000	46,261075
3975,000000	46,259451
3974,000000	46,275872
3973,000000	46,303616
3972,000000	46,335304
3971,000000	46,369430
3970,000000	46,410114
3969,000000	46,460376
3968,000000	46,514457
3967,000000	46,555703
3966,000000	46,564348
3965,000000	46,533228
3964,000000	46,480075
3963,000000	46,439875
3962,000000	46,438440
3961,000000	46,472728
3960,000000	46,519327
3959,000000	46,559896
3958,000000	46,593918
3957,000000	46,627367
3956,000000	46,655811
3955,000000	46,661158
3954,000000	46,620496
3953,000000	46,518269
3952,000000	46,360694
3951,000000	46,188561
3950,000000	46,069704
3949,000000	46,057964
3948,000000	46,139848
3947,000000	46,224687
3946,000000	46,215352
3945,000000	46,105643
3944,000000	46,003766
3943,000000	46,037752
3942,000000	46,231838
3941,000000	46,494040
3940,000000	46,720561
3939,000000	46,877344
3938,000000	46,966064
3937,000000	46,949520
3936,000000	46,767462
3935,000000	46,432073
3934,000000	46,068416
3933,000000	45,839639
3932,000000	45,834466
3931,000000	46,022438
3930,000000	46,282464
3929,000000	46,465695
3928,000000	46,481288
3927,000000	46,362944
3926,000000	46,241791
3925,000000	46,226629
3924,000000	46,299519
3923,000000	46,342135
3922,000000	46,252000
3921,000000	46,020561
3920,000000	45,728016
3919,000000	45,502952
3918,000000	45,480522
3917,000000	45,732068
3916,000000	46,199748
3915,000000	46,719678
3914,000000	47,137505
3913,000000	47,410172
3912,000000	47,582232
3911,000000	47,678671
3910,000000	47,634095
3909,000000	47,317922
3908,000000	46,627192
3907,000000	45,590995
3906,000000	44,413973
3905,000000	43,388743
3904,000000	42,714426
3903,000000	42,400333
3902,000000	42,366611
3901,000000	42,610983
3900,000000	43,216847
3899,000000	44,176838
3898,000000	45,277076
3897,000000	46,181852
3896,000000	46,612483
3895,000000	46,466426
3894,000000	45,878466
3893,000000	45,230059
3892,000000	44,963627
3891,000000	45,202226
3890,000000	45,550900
3889,000000	45,458774
3888,000000	44,819733
3887,000000	44,130215
3886,000000	43,949008
3885,000000	44,296288
3884,000000	44,694806
3883,000000	44,757167
3882,000000	44,608383
3881,000000	44,694891
3880,000000	45,246308
3879,000000	46,001375
3878,000000	46,465621
3877,000000	46,402861
3876,000000	46,016573
3875,000000	45,603706
3874,000000	45,143585
3873,000000	44,392910
3872,000000	43,396122
3871,000000	42,669441
3870,000000	42,685775
3869,000000	43,293489
3868,000000	43,865166
3867,000000	43,996030
3866,000000	43,868110
3865,000000	43,910993
3864,000000	44,303004
3863,000000	44,922734
3862,000000	45,605866
3861,000000	46,252756
3860,000000	46,681732
3859,000000	46,513659
3858,000000	45,319706
3857,000000	42,979771
3856,000000	40,010052
3855,000000	37,502139
3854,000000	36,530501
3853,000000	37,437862
3852,000000	39,663814
3851,000000	42,256332
3850,000000	44,518108
3849,000000	46,175331
3848,000000	47,162110
3847,000000	47,476352
3846,000000	47,248300
3845,000000	46,745075
3844,000000	46,185254
3843,000000	45,569804
3842,000000	44,746910
3841,000000	43,651870
3840,000000	42,493584
3839,000000	41,691000
3838,000000	41,592170
3837,000000	42,188860
3836,000000	43,118478
3835,000000	43,974222
3834,000000	44,615467
3833,000000	45,176092
3832,000000	45,806976
3831,000000	46,469384
3830,000000	46,976790
3829,000000	47,218284
3828,000000	47,288640
3827,000000	47,335052
3826,000000	47,257860
3825,000000	46,685629
3824,000000	45,427787
3823,000000	43,929671
3822,000000	43,022313
3821,000000	43,083117
3820,000000	43,582064
3819,000000	43,703219
3818,000000	43,312647
3817,000000	43,097929
3816,000000	43,737860
3815,000000	45,167075
3814,000000	46,760135
3813,000000	47,965599
3812,000000	48,566115
3811,000000	48,474292
3810,000000	47,675866
3809,000000	46,483867
3808,000000	45,559800
3807,000000	45,362449
3806,000000	45,586117
3805,000000	45,421542
3804,000000	44,487564
3803,000000	43,354580
3802,000000	42,965035
3801,000000	43,622955
3800,000000	44,765297
3799,000000	45,683298
3798,000000	46,244826
3797,000000	46,786978
3796,000000	47,543668
3795,000000	48,392058
3794,000000	49,090846
3793,000000	49,549437
3792,000000	49,823090
3791,000000	49,981573
3790,000000	50,048450
3789,000000	50,010950
3788,000000	49,855850
3787,000000	49,632869
3786,000000	49,462970
3785,000000	49,425914
3784,000000	49,426576
3783,000000	49,260023
3782,000000	48,854700
3781,000000	48,409113
3780,000000	48,239213
3779,000000	48,488553
3778,000000	49,018776
3777,000000	49,566434
3776,000000	49,949961
3775,000000	50,089659
3774,000000	49,896607
3773,000000	49,297181
3772,000000	48,436570
3771,000000	47,715873
3770,000000	47,456528
3769,000000	47,574966
3768,000000	47,747269
3767,000000	47,870888
3766,000000	48,138018
3765,000000	48,621322
3764,000000	49,017905
3763,000000	48,973415
3762,000000	48,499094
3761,000000	47,926437
3760,000000	47,564591
3759,000000	47,520808
3758,000000	47,703533
3757,000000	47,796636
3756,000000	47,331871
3755,000000	46,030700
3754,000000	44,096258
3753,000000	42,094019
3752,000000	40,610767
3751,000000	40,047202
3750,000000	40,447296
3749,000000	41,261007
3748,000000	41,515790
3747,000000	40,693089
3746,000000	39,464473
3745,000000	39,172113
3744,000000	40,454187
3743,000000	42,658384
3742,000000	44,624370
3741,000000	45,662588
3740,000000	45,689347
3739,000000	44,872504
3738,000000	43,558619
3737,000000	42,315591
3736,000000	41,620823
3735,000000	41,524458
3734,000000	41,836442
3733,000000	42,534044
3732,000000	43,683524
3731,000000	45,037685
3730,000000	46,051599
3729,000000	46,414465
3728,000000	46,339208
3727,000000	46,234719
3726,000000	46,271798
3725,000000	46,378558
3724,000000	46,512120
3723,000000	46,754569
3722,000000	47,173520
3721,000000	47,726195
3720,000000	48,325826
3719,000000	48,918516
3718,000000	49,423337
3717,000000	49,618848
3716,000000	49,197417
3715,000000	48,045159
3714,000000	46,474886
3713,000000	45,102711
3712,000000	44,439692
3711,000000	44,597992
3710,000000	45,371078
3709,000000	46,469400
3708,000000	47,617684
3707,000000	48,539631
3706,000000	48,994921
3705,000000	48,917293
3704,000000	48,492521
3703,000000	48,084767
3702,000000	48,030375
3701,000000	48,405552
3700,000000	48,986820
3699,000000	49,480528
3698,000000	49,787809
3697,000000	49,974849
3696,000000	50,021510
3695,000000	49,742460
3694,000000	48,990144
3693,000000	47,803922
3692,000000	46,350682
3691,000000	44,905891
3690,000000	43,937860
3689,000000	43,967308
3688,000000	45,113849
3687,000000	46,879293
3686,000000	48,552624
3685,000000	49,747999
3684,000000	50,454907
3683,000000	50,742239
3682,000000	50,639925
3681,000000	50,175480
3680,000000	49,275061
3679,000000	47,729102
3678,000000	45,611935
3677,000000	43,674631
3676,000000	42,900522
3675,000000	43,455005
3674,000000	44,399891
3673,000000	44,703458
3672,000000	44,333309
3671,000000	44,147769
3670,000000	44,858470
3669,000000	46,384598
3668,000000	48,153497
3667,000000	49,691681
3666,000000	50,826123
3665,000000	51,559817
3664,000000	51,965881
3663,000000	52,162319
3662,000000	52,223696
3661,000000	52,068611
3660,000000	51,515409
3659,000000	50,536202
3658,000000	49,469482
3657,000000	48,853965
3656,000000	48,914321
3655,000000	49,215550
3654,000000	48,948960
3653,000000	47,675476
3652,000000	45,732785
3651,000000	43,930222
3650,000000	42,949474
3649,000000	43,047543
3648,000000	44,137059
3647,000000	45,889627
3646,000000	47,792179
3645,000000	49,351673
3644,000000	50,373763
3643,000000	50,975956
3642,000000	51,332335
3641,000000	51,504220
3640,000000	51,520360
3639,000000	51,453447
3638,000000	51,322861
3637,000000	51,056337
3636,000000	50,647889
3635,000000	50,211333
3634,000000	49,708870
3633,000000	48,765160
3632,000000	47,050022
3631,000000	44,907973
3630,000000	43,341016
3629,000000	43,194846
3628,000000	44,423930
3627,000000	46,252456
3626,000000	47,903825
3625,000000	49,021607
3624,000000	49,505601
3623,000000	49,302803
3622,000000	48,512137
3621,000000	47,542005
3620,000000	46,937463
3619,000000	46,990965
3618,000000	47,535381
3617,000000	48,128692
3616,000000	48,434653
3615,000000	48,441677
3614,000000	48,343118
3613,000000	48,250437
3612,000000	48,082931
3611,000000	47,767518
3610,000000	47,470087
3609,000000	47,511309
3608,000000	48,038947
3607,000000	48,869770
3606,000000	49,666061
3605,000000	50,197471
3604,000000	50,414396
3603,000000	50,383037
3602,000000	50,233577
3601,000000	50,106780
3600,000000	50,052738
3599,000000	49,993221
3598,000000	49,834679
3597,000000	49,605761
3596,000000	49,449963
3595,000000	49,490624
3594,000000	49,711462
3593,000000	49,922610
3592,000000	49,833091
3591,000000	49,243034
3590,000000	48,266971
3589,000000	47,335162
3588,000000	46,894302
3587,000000	47,084261
3586,000000	47,716184
3585,000000	48,504204
3584,000000	49,253385
3583,000000	49,878381
3582,000000	50,359503
3581,000000	50,722293
3580,000000	51,008712
3579,000000	51,237595
3578,000000	51,408045
3577,000000	51,535514
3576,000000	51,654116
3575,000000	51,779199
3574,000000	51,883619
3573,000000	51,885117
3572,000000	51,636076
3571,000000	50,991921
3570,000000	49,987195
3569,000000	48,944556
3568,000000	48,311041
3567,000000	48,336522
3566,000000	48,912751
3565,000000	49,717607
3564,000000	50,463149
3563,000000	51,023162
3562,000000	51,407086
3561,000000	51,685199
3560,000000	51,921898
3559,000000	52,135136
3558,000000	52,297247
3557,000000	52,364007
3556,000000	52,306556
3555,000000	52,139602
3554,000000	51,944869
3553,000000	51,840413
3552,000000	51,874436
3551,000000	51,950815
3550,000000	51,905916
3549,000000	51,677346
3548,000000	51,370008
3547,000000	51,157070
3546,000000	51,145927
3545,000000	51,337662
3544,000000	51,662088
3543,000000	52,020992
3542,000000	52,324168
3541,000000	52,517639
3540,000000	52,588868
3539,000000	52,557366
3538,000000	52,477140
3537,000000	52,428939
3536,000000	52,466186
3535,000000	52,560845
3534,000000	52,626860
3533,000000	52,602036
3532,000000	52,485458
3531,000000	52,308539
3530,000000	52,110489
3529,000000	51,942545
3528,000000	51,846286
3527,000000	51,810766
3526,000000	51,790419
3525,000000	51,779668
3524,000000	51,832696
3523,000000	51,985461
3522,000000	52,194169
3521,000000	52,380317
3520,000000	52,512093
3519,000000	52,609218
3518,000000	52,690299
3517,000000	52,750299
3516,000000	52,780689
3515,000000	52,778585
3514,000000	52,733871
3513,000000	52,633946
3512,000000	52,493661
3511,000000	52,369065
3510,000000	52,323953
3509,000000	52,372079
3508,000000	52,448395
3507,000000	52,451598
3506,000000	52,334083
3505,000000	52,154806
3504,000000	52,033164
3503,000000	52,047289
3502,000000	52,181151
3501,000000	52,356499
3500,000000	52,498015
3499,000000	52,570662
3498,000000	52,586143
3497,000000	52,587559
3496,000000	52,614449
3495,000000	52,671210
3494,000000	52,731322
3493,000000	52,768901
3492,000000	52,773284
3491,000000	52,741630
3490,000000	52,681878
3489,000000	52,625234
3488,000000	52,608003
3487,000000	52,628740
3486,000000	52,641399
3485,000000	52,604741
3484,000000	52,527871
3483,000000	52,460532
3482,000000	52,448883
3481,000000	52,506287
3480,000000	52,609494
3479,000000	52,712418
3478,000000	52,776482
3477,000000	52,798894
3476,000000	52,807772
3475,000000	52,827248
3474,000000	52,857397
3473,000000	52,886985
3472,000000	52,908400
3471,000000	52,914747
3470,000000	52,900248
3469,000000	52,874135
3468,000000	52,860128
3467,000000	52,870278
3466,000000	52,889653
3465,000000	52,896794
3464,000000	52,890899
3463,000000	52,889891
3462,000000	52,908728
3461,000000	52,948263
3460,000000	52,998988
3459,000000	53,048382
3458,000000	53,088655
3457,000000	53,121561
3456,000000	53,152641
3455,000000	53,181578
3454,000000	53,204913
3453,000000	53,221448
3452,000000	53,220488
3451,000000	53,170519
3450,000000	53,047976
3449,000000	52,886235
3448,000000	52,770573
3447,000000	52,762377
3446,000000	52,840444
3445,000000	52,935560
3444,000000	53,008319
3443,000000	53,071907
3442,000000	53,147594
3441,000000	53,228437
3440,000000	53,294025
3439,000000	53,338972
3438,000000	53,373177
3437,000000	53,404719
3436,000000	53,434260
3435,000000	53,461546
3434,000000	53,488442
3433,000000	53,516505
3432,000000	53,546701
3431,000000	53,581244
3430,000000	53,622381
3429,000000	53,669774
3428,000000	53,720402
3427,000000	53,768664
3426,000000	53,803891
3425,000000	53,811038
3424,000000	53,781845
3423,000000	53,730135
3422,000000	53,691887
3421,000000	53,702863
3420,000000	53,771792
3419,000000	53,875278
3418,000000	53,978306
3417,000000	54,058172
3416,000000	54,111230
3415,000000	54,144997
3414,000000	54,169116
3413,000000	54,190934
3412,000000	54,213548
3411,000000	54,236166
3410,000000	54,257416
3409,000000	54,277943
3408,000000	54,298691
3407,000000	54,317508
3406,000000	54,330070
3405,000000	54,334481
3404,000000	54,334031
3403,000000	54,334723
3402,000000	54,339587
3401,000000	54,346381
3400,000000	54,353330
3399,000000	54,366696
3398,000000	54,396483
3397,000000	54,440193
3396,000000	54,477325
3395,000000	54,490214
3394,000000	54,489008
3393,000000	54,505547
3392,000000	54,559930
3391,000000	54,640798
3390,000000	54,720281
3389,000000	54,778948
3388,000000	54,812614
3387,000000	54,826847
3386,000000	54,834329
3385,000000	54,851319
3384,000000	54,885871
3383,000000	54,930645
3382,000000	54,972446
3381,000000	55,006090
3380,000000	55,034524
3379,000000	55,059918
3378,000000	55,081985
3377,000000	55,102674
3376,000000	55,125502
3375,000000	55,150057
3374,000000	55,171331
3373,000000	55,184135
3372,000000	55,185334
3371,000000	55,173651
3370,000000	55,151904
3369,000000	55,128795
3368,000000	55,115365
3367,000000	55,119033
3366,000000	55,140877
3365,000000	55,175707
3364,000000	55,214138
3363,000000	55,248332
3362,000000	55,278121
3361,000000	55,308543
3360,000000	55,340129
3359,000000	55,366461
3358,000000	55,384053
3357,000000	55,399614
3356,000000	55,422622
3355,000000	55,453720
3354,000000	55,484875
3353,000000	55,509073
3352,000000	55,526441
3351,000000	55,542383
3350,000000	55,562788
3349,000000	55,589890
3348,000000	55,620308
3347,000000	55,647539
3346,000000	55,667453
3345,000000	55,680822
3344,000000	55,690856
3343,000000	55,700140
3342,000000	55,709191
3341,000000	55,714911
3340,000000	55,711828
3339,000000	55,699504
3338,000000	55,688589
3337,000000	55,694453
3336,000000	55,723153
3335,000000	55,767032
3334,000000	55,814023
3333,000000	55,856466
3332,000000	55,890480
3331,000000	55,913339
3330,000000	55,924941
3329,000000	55,928820
3328,000000	55,929713
3327,000000	55,932315
3326,000000	55,942265
3325,000000	55,963974
3324,000000	55,996058
3323,000000	56,031906
3322,000000	56,065360
3321,000000	56,093723
3320,000000	56,116501
3319,000000	56,134867
3318,000000	56,151294
3317,000000	56,165853
3316,000000	56,174707
3315,000000	56,176348
3314,000000	56,176071
3313,000000	56,178470
3312,000000	56,179238
3311,000000	56,172863
3310,000000	56,166342
3309,000000	56,174795
3308,000000	56,203179
3307,000000	56,241562
3306,000000	56,279820
3305,000000	56,318106
3304,000000	56,359430
3303,000000	56,400548
3302,000000	56,434717
3301,000000	56,458018
3300,000000	56,470455
3299,000000	56,475832
3298,000000	56,481611
3297,000000	56,492730
3296,000000	56,504193
3295,000000	56,506562
3294,000000	56,500487
3293,000000	56,499011
3292,000000	56,513369
3291,000000	56,542743
3290,000000	56,580144
3289,000000	56,620243
3288,000000	56,657971
3287,000000	56,686831
3286,000000	56,704327
3285,000000	56,715472
3284,000000	56,726945
3283,000000	56,740839
3282,000000	56,755716
3281,000000	56,769193
3280,000000	56,777061
3279,000000	56,774495
3278,000000	56,761523
3277,000000	56,745110
3276,000000	56,734497
3275,000000	56,736435
3274,000000	56,754020
3273,000000	56,785864
3272,000000	56,825940
3271,000000	56,867757
3270,000000	56,908867
3269,000000	56,948248
3268,000000	56,981549
3267,000000	57,004727
3266,000000	57,021033
3265,000000	57,038067
3264,000000	57,057980
3263,000000	57,076191
3262,000000	57,089832
3261,000000	57,101248
3260,000000	57,112093
3259,000000	57,119715
3258,000000	57,121295
3257,000000	57,118586
3256,000000	57,118150
3255,000000	57,129146
3254,000000	57,158233
3253,000000	57,202308
3252,000000	57,248300
3251,000000	57,283599
3250,000000	57,303508
3249,000000	57,306607
3248,000000	57,291152
3247,000000	57,264688
3246,000000	57,249489
3245,000000	57,265367
3244,000000	57,308145
3243,000000	57,355531
3242,000000	57,392713
3241,000000	57,421024
3240,000000	57,444615
3239,000000	57,462059
3238,000000	57,473504
3237,000000	57,483737
3236,000000	57,494111
3235,000000	57,500965
3234,000000	57,505538
3233,000000	57,516145
3232,000000	57,536504
3231,000000	57,560256
3230,000000	57,581449
3229,000000	57,603132
3228,000000	57,630723
3227,000000	57,663384
3226,000000	57,695979
3225,000000	57,724093
3224,000000	57,742977
3223,000000	57,747675
3222,000000	57,740114
3221,000000	57,732827
3220,000000	57,739744
3219,000000	57,762847
3218,000000	57,790223
3217,000000	57,808401
3216,000000	57,816030
3215,000000	57,824817
3214,000000	57,845409
3213,000000	57,873784
3212,000000	57,896947
3211,000000	57,911744
3210,000000	57,930552
3209,000000	57,963876
3208,000000	58,005684
3207,000000	58,042459
3206,000000	58,070475
3205,000000	58,095136
3204,000000	58,118095
3203,000000	58,134629
3202,000000	58,141355
3201,000000	58,138843
3200,000000	58,129696
3199,000000	58,121653
3198,000000	58,128524
3197,000000	58,158504
3196,000000	58,203082
3195,000000	58,245657
3194,000000	58,279062
3193,000000	58,306966
3192,000000	58,332170
3191,000000	58,353014
3190,000000	58,369465
3189,000000	58,382870
3188,000000	58,390930
3187,000000	58,392155
3186,000000	58,394255
3185,000000	58,408746
3184,000000	58,436200
3183,000000	58,464276
3182,000000	58,480207
3181,000000	58,480661
3180,000000	58,472016
3179,000000	58,468277
3178,000000	58,484717
3177,000000	58,524446
3176,000000	58,573019
3175,000000	58,613125
3174,000000	58,641861
3173,000000	58,666183
3172,000000	58,687615
3171,000000	58,702461
3170,000000	58,713414
3169,000000	58,728259
3168,000000	58,747863
3167,000000	58,766539
3166,000000	58,783528
3165,000000	58,803589
3164,000000	58,826482
3163,000000	58,846540
3162,000000	58,862971
3161,000000	58,880787
3160,000000	58,901179
3159,000000	58,920302
3158,000000	58,937615
3157,000000	58,955916
3156,000000	58,972771
3155,000000	58,981867
3154,000000	58,984332
3153,000000	58,990168
3152,000000	59,006555
3151,000000	59,031995
3150,000000	59,062053
3149,000000	59,093457
3148,000000	59,121999
3147,000000	59,144213
3146,000000	59,162045
3145,000000	59,179912
3144,000000	59,197377
3143,000000	59,210708
3142,000000	59,220524
3141,000000	59,231637
3140,000000	59,246753
3139,000000	59,265891
3138,000000	59,288250
3137,000000	59,308241
3136,000000	59,314811
3135,000000	59,305412
3134,000000	59,296821
3133,000000	59,310476
3132,000000	59,347253
3131,000000	59,387405
3130,000000	59,414646
3129,000000	59,430318
3128,000000	59,442686
3127,000000	59,453484
3126,000000	59,458867
3125,000000	59,456763
3124,000000	59,449943
3123,000000	59,445103
3122,000000	59,448713
3121,000000	59,459792
3120,000000	59,469188
3119,000000	59,471007
3118,000000	59,471788
3117,000000	59,483248
3116,000000	59,509548
3115,000000	59,547638
3114,000000	59,593839
3113,000000	59,642096
3112,000000	59,680751
3111,000000	59,702422
3110,000000	59,714541
3109,000000	59,731018
3108,000000	59,755334
3107,000000	59,779722
3106,000000	59,797023
3105,000000	59,804051
3104,000000	59,798271
3103,000000	59,783119
3102,000000	59,774315
3101,000000	59,787392
3100,000000	59,818406
3099,000000	59,847478
3098,000000	59,863312
3097,000000	59,874923
3096,000000	59,897893
3095,000000	59,937573
3094,000000	59,987085
3093,000000	60,034636
3092,000000	60,070572
3091,000000	60,093021
3090,000000	60,107795
3089,000000	60,120419
3088,000000	60,130358
3087,000000	60,136219
3086,000000	60,141368
3085,000000	60,148163
3084,000000	60,151780
3083,000000	60,147118
3082,000000	60,138036
3081,000000	60,133111
3080,000000	60,136916
3079,000000	60,152149
3078,000000	60,183669
3077,000000	60,230664
3076,000000	60,279815
3075,000000	60,316734
3074,000000	60,340623
3073,000000	60,358487
3072,000000	60,369058
3071,000000	60,363072
3070,000000	60,337077
3069,000000	60,297870
3068,000000	60,256322
3067,000000	60,225257
3066,000000	60,218780
3065,000000	60,242528
3064,000000	60,285741
3063,000000	60,331058
3062,000000	60,369120
3061,000000	60,396668
3060,000000	60,407866
3059,000000	60,401013
3058,000000	60,389954
3057,000000	60,395637
3056,000000	60,425509
3055,000000	60,469382
3054,000000	60,512634
3053,000000	60,544564
3052,000000	60,558366
3051,000000	60,556341
3050,000000	60,554011
3049,000000	60,567581
3048,000000	60,596523
3047,000000	60,626608
3046,000000	60,648437
3045,000000	60,663533
3044,000000	60,674869
3043,000000	60,682787
3042,000000	60,690546
3041,000000	60,703111
3040,000000	60,718546
3039,000000	60,728068
3038,000000	60,725810
3037,000000	60,711877
3036,000000	60,687035
3035,000000	60,652246
3034,000000	60,614497
3033,000000	60,586977
3032,000000	60,580969
3031,000000	60,598898
3030,000000	60,631822
3029,000000	60,661256
3028,000000	60,669490
3027,000000	60,653769
3026,000000	60,627168
3025,000000	60,601940
3024,000000	60,578266
3023,000000	60,552242
3022,000000	60,524948
3021,000000	60,496626
3020,000000	60,462230
3019,000000	60,422715
3018,000000	60,393014
3017,000000	60,387644
3016,000000	60,405236
3015,000000	60,436798
3014,000000	60,482595
3013,000000	60,549178
3012,000000	60,635303
3011,000000	60,732369
3010,000000	60,832896
3009,000000	60,928617
3008,000000	61,005590
3007,000000	61,055029
3006,000000	61,085609
3005,000000	61,114232
3004,000000	61,147248
3003,000000	61,179591
3002,000000	61,207654
3001,000000	61,231219
3000,000000	61,247264
2999,000000	61,252863
2998,000000	61,252334
2997,000000	61,252014
2996,000000	61,251270
2995,000000	61,247750
2994,000000	61,246594
2993,000000	61,253873
2992,000000	61,264876
2991,000000	61,269523
2990,000000	61,266670
2989,000000	61,263107
2988,000000	61,261564
2987,000000	61,259224
2986,000000	61,254736
2985,000000	61,247128
2984,000000	61,230767
2983,000000	61,200846
2982,000000	61,161828
2981,000000	61,122565
2980,000000	61,085703
2979,000000	61,048461
2978,000000	61,008676
2977,000000	60,963216
2976,000000	60,905813
2975,000000	60,834797
2974,000000	60,757535
2973,000000	60,679067
2972,000000	60,592945
2971,000000	60,491384
2970,000000	60,378090
2969,000000	60,262032
2968,000000	60,145609
2967,000000	60,029010
2966,000000	59,919068
2965,000000	59,823165
2964,000000	59,739608
2963,000000	59,664323
2962,000000	59,600985
2961,000000	59,554521
2960,000000	59,520901
2959,000000	59,493477
2958,000000	59,473679
2957,000000	59,464526
2956,000000	59,460112
2955,000000	59,452703
2954,000000	59,444488
2953,000000	59,441353
2952,000000	59,439662
2951,000000	59,430368
2950,000000	59,411019
2949,000000	59,383562
2948,000000	59,345257
2947,000000	59,292124
2946,000000	59,226983
2945,000000	59,154033
2944,000000	59,070714
2943,000000	58,973251
2942,000000	58,864771
2941,000000	58,749178
2940,000000	58,624202
2939,000000	58,490011
2938,000000	58,357115
2937,000000	58,235696
2936,000000	58,123891
2935,000000	58,016057
2934,000000	57,914252
2933,000000	57,820674
2932,000000	57,728016
2931,000000	57,629987
2930,000000	57,534482
2929,000000	57,454356
2928,000000	57,392343
2927,000000	57,347476
2926,000000	57,328118
2925,000000	57,345793
2924,000000	57,401651
2923,000000	57,491451
2922,000000	57,617093
2921,000000	57,779591
2920,000000	57,967785
2919,000000	58,166618
2918,000000	58,372160
2917,000000	58,585872
2916,000000	58,801087
2915,000000	59,008470
2914,000000	59,208418
2913,000000	59,404955
2912,000000	59,592179
2911,000000	59,760242
2910,000000	59,909566
2909,000000	60,046583
2908,000000	60,170607
2907,000000	60,277819
2906,000000	60,373303
2905,000000	60,465997
2904,000000	60,555902
2903,000000	60,638161
2902,000000	60,714892
2901,000000	60,791069
2900,000000	60,863324
2899,000000	60,925318
2898,000000	60,979919
2897,000000	61,034761
2896,000000	61,090381
2895,000000	61,143319
2894,000000	61,195586
2893,000000	61,249820
2892,000000	61,300718
2891,000000	61,342445
2890,000000	61,378875
2889,000000	61,415648
2888,000000	61,448520
2887,000000	61,470820
2886,000000	61,485707
2885,000000	61,499164
2884,000000	61,507504
2883,000000	61,504236
2882,000000	61,492812
2881,000000	61,480070
2880,000000	61,463034
2879,000000	61,434514
2878,000000	61,395730
2877,000000	61,351239
2876,000000	61,297910
2875,000000	61,231696
2874,000000	61,159148
2873,000000	61,088889
2872,000000	61,016952
2871,000000	60,932552
2870,000000	60,833016
2869,000000	60,720866
2868,000000	60,593124
2867,000000	60,446942
2866,000000	60,291388
2865,000000	60,140653
2864,000000	60,000889
2863,000000	59,874660
2862,000000	59,772124
2861,000000	59,704849
2860,000000	59,672889
2859,000000	59,669552
2858,000000	59,693539
2857,000000	59,744676
2856,000000	59,814346
2855,000000	59,892693
2854,000000	59,980624
2853,000000	60,083666
2852,000000	60,200367
2851,000000	60,327773
2850,000000	60,471534
2849,000000	60,637535
2848,000000	60,818968
2847,000000	61,003301
2846,000000	61,185756
2845,000000	61,365164
2844,000000	61,533667
2843,000000	61,682960
2842,000000	61,815248
2841,000000	61,936529
2840,000000	62,045723
2839,000000	62,141346
2838,000000	62,230784
2837,000000	62,320829
2836,000000	62,406052
2835,000000	62,478638
2834,000000	62,542300
2833,000000	62,604663
2832,000000	62,663506
2831,000000	62,713370
2830,000000	62,758166
2829,000000	62,804427
2828,000000	62,849217
2827,000000	62,887159
2826,000000	62,922308
2825,000000	62,960426
2824,000000	62,997138
2823,000000	63,026290
2822,000000	63,052249
2821,000000	63,081450
2820,000000	63,109520
2819,000000	63,130012
2818,000000	63,147788
2817,000000	63,170416
2816,000000	63,194054
2815,000000	63,211290
2814,000000	63,225258
2813,000000	63,242201
2812,000000	63,258070
2811,000000	63,266401
2810,000000	63,272318
2809,000000	63,284330
2808,000000	63,299070
2807,000000	63,308115
2806,000000	63,313029
2805,000000	63,320299
2804,000000	63,327992
2803,000000	63,330929
2802,000000	63,332434
2801,000000	63,337739
2800,000000	63,342852
2799,000000	63,342868
2798,000000	63,343856
2797,000000	63,353450
2796,000000	63,366876
2795,000000	63,375796
2794,000000	63,383269
2793,000000	63,396484
2792,000000	63,412690
2791,000000	63,425955
2790,000000	63,440518
2789,000000	63,463487
2788,000000	63,491181
2787,000000	63,516349
2786,000000	63,541463
2785,000000	63,571606
2784,000000	63,602013
2783,000000	63,625966
2782,000000	63,647595
2781,000000	63,673302
2780,000000	63,698335
2779,000000	63,715433
2778,000000	63,728745
2777,000000	63,745631
2776,000000	63,762841
2775,000000	63,774548
2774,000000	63,785559
2773,000000	63,802564
2772,000000	63,820252
2771,000000	63,830493
2770,000000	63,837284
2769,000000	63,848436
2768,000000	63,860813
2767,000000	63,867875
2766,000000	63,873636
2765,000000	63,884700
2764,000000	63,896706
2763,000000	63,902834
2762,000000	63,907492
2761,000000	63,917272
2760,000000	63,926995
2759,000000	63,929427
2758,000000	63,930112
2757,000000	63,937616
2756,000000	63,947671
2755,000000	63,952211
2754,000000	63,955287
2753,000000	63,964651
2752,000000	63,975795
2751,000000	63,980132
2750,000000	63,981209
2749,000000	63,987403
2748,000000	63,996164
2747,000000	64,000768
2746,000000	64,004800
2745,000000	64,014646
2744,000000	64,025381
2743,000000	64,029354
2742,000000	64,031055
2741,000000	64,038420
2740,000000	64,047549
2739,000000	64,051018
2738,000000	64,053167
2737,000000	64,061734
2736,000000	64,072574
2735,000000	64,077957
2734,000000	64,081831
2733,000000	64,091560
2732,000000	64,102726
2731,000000	64,107594
2730,000000	64,110260
2729,000000	64,118015
2728,000000	64,126352
2727,000000	64,128239
2726,000000	64,129571
2725,000000	64,139062
2724,000000	64,151505
2723,000000	64,157414
2722,000000	64,160881
2721,000000	64,171030
2720,000000	64,183901
2719,000000	64,190108
2718,000000	64,192772
2717,000000	64,200910
2716,000000	64,211983
2715,000000	64,217966
2714,000000	64,221624
2713,000000	64,230416
2712,000000	64,240802
2711,000000	64,244981
2710,000000	64,246420
2709,000000	64,253028
2708,000000	64,261743
2707,000000	64,265454
2706,000000	64,268087
2705,000000	64,277139
2704,000000	64,288611
2703,000000	64,294838
2702,000000	64,299946
2701,000000	64,311901
2700,000000	64,326849
2699,000000	64,336790
2698,000000	64,345287
2697,000000	64,359775
2696,000000	64,376071
2695,000000	64,386125
2694,000000	64,393574
2693,000000	64,405848
2692,000000	64,418817
2691,000000	64,424877
2690,000000	64,428664
2689,000000	64,438750
2688,000000	64,451533
2687,000000	64,458874
2686,000000	64,463788
2685,000000	64,473022
2684,000000	64,482278
2683,000000	64,484704
2682,000000	64,485634
2681,000000	64,493133
2680,000000	64,502265
2679,000000	64,504626
2678,000000	64,504783
2677,000000	64,511134
2676,000000	64,519200
2675,000000	64,520499
2674,000000	64,519561
2673,000000	64,525399
2672,000000	64,534312
2671,000000	64,537605
2670,000000	64,538361
2669,000000	64,543947
2668,000000	64,550397
2667,000000	64,550631
2666,000000	64,549752
2665,000000	64,555704
2664,000000	64,563259
2663,000000	64,563787
2662,000000	64,562319
2661,000000	64,568145
2660,000000	64,577058
2659,000000	64,580009
2658,000000	64,580693
2657,000000	64,587534
2656,000000	64,596617
2655,000000	64,599897
2654,000000	64,601800
2653,000000	64,610692
2652,000000	64,621963
2651,000000	64,626691
2650,000000	64,628850
2649,000000	64,636860
2648,000000	64,646623
2647,000000	64,649923
2646,000000	64,651288
2645,000000	64,659326
2644,000000	64,669947
2643,000000	64,674880
2642,000000	64,678377
2641,000000	64,688003
2640,000000	64,698115
2639,000000	64,700117
2638,000000	64,700055
2637,000000	64,708330
2636,000000	64,720470
2635,000000	64,726057
2634,000000	64,728065
2633,000000	64,735244
2632,000000	64,743856
2631,000000	64,745530
2630,000000	64,744791
2629,000000	64,750815
2628,000000	64,759344
2627,000000	64,761183
2626,000000	64,760525
2625,000000	64,766770
2624,000000	64,776274
2623,000000	64,779922
2622,000000	64,781256
2621,000000	64,788768
2620,000000	64,798347
2619,000000	64,801156
2618,000000	64,801308
2617,000000	64,807917
2616,000000	64,817224
2615,000000	64,820192
2614,000000	64,820099
2613,000000	64,825196
2612,000000	64,831977
2611,000000	64,832874
2610,000000	64,832409
2609,000000	64,838326
2608,000000	64,845243
2607,000000	64,844437
2606,000000	64,841009
2605,000000	64,844021
2604,000000	64,848421
2603,000000	64,844980
2602,000000	64,838625
2601,000000	64,839006
2600,000000	64,841582
2599,000000	64,836820
2598,000000	64,829075
2597,000000	64,827800
2596,000000	64,828755
2595,000000	64,822723
2594,000000	64,814519
2593,000000	64,814343
2592,000000	64,818805
2591,000000	64,818795
2590,000000	64,817981
2589,000000	64,824608
2588,000000	64,833678
2587,000000	64,835809
2586,000000	64,835632
2585,000000	64,842638
2584,000000	64,852594
2583,000000	64,856483
2582,000000	64,859160
2581,000000	64,870103
2580,000000	64,884241
2579,000000	64,891070
2578,000000	64,894278
2577,000000	64,903307
2576,000000	64,914113
2575,000000	64,917379
2574,000000	64,917466
2573,000000	64,923734
2572,000000	64,931723
2571,000000	64,931863
2570,000000	64,928939
2569,000000	64,933109
2568,000000	64,940391
2567,000000	64,940975
2566,000000	64,938926
2565,000000	64,943868
2564,000000	64,951556
2563,000000	64,952119
2562,000000	64,949507
2561,000000	64,953354
2560,000000	64,959500
2559,000000	64,958352
2558,000000	64,954118
2557,000000	64,956752
2556,000000	64,962283
2555,000000	64,961077
2554,000000	64,957150
2553,000000	64,960346
2552,000000	64,966936
2551,000000	64,967466
2550,000000	64,965652
2549,000000	64,970176
2548,000000	64,976176
2547,000000	64,974059
2546,000000	64,968791
2545,000000	64,970800
2544,000000	64,976300
2543,000000	64,975736
2542,000000	64,973395
2541,000000	64,978786
2540,000000	64,987073
2539,000000	64,987915
2538,000000	64,985486
2537,000000	64,989804
2536,000000	64,996761
2535,000000	64,996455
2534,000000	64,993329
2533,000000	64,997707
2532,000000	65,005377
2531,000000	65,005804
2530,000000	65,002407
2529,000000	65,005293
2528,000000	65,011258
2527,000000	65,011213
2526,000000	65,009153
2525,000000	65,014113
2524,000000	65,021326
2523,000000	65,021049
2522,000000	65,017906
2521,000000	65,021804
2520,000000	65,027986
2519,000000	65,026012
2518,000000	65,020091
2517,000000	65,020349
2516,000000	65,022864
2515,000000	65,018026
2514,000000	65,010608
2513,000000	65,010812
2512,000000	65,014120
2511,000000	65,010352
2510,000000	65,003980
2509,000000	65,004882
2508,000000	65,007872
2507,000000	65,002441
2506,000000	64,994039
2505,000000	64,994537
2504,000000	64,999444
2503,000000	64,996417
2502,000000	64,988175
2501,000000	64,985621
2500,000000	64,986039
2499,000000	64,979820
2498,000000	64,971176
2497,000000	64,970736
2496,000000	64,974552
2495,000000	64,971485
2494,000000	64,964586
2493,000000	64,964144
2492,000000	64,966922
2491,000000	64,962993
2490,000000	64,956171
2489,000000	64,956594
2488,000000	64,960444
2487,000000	64,957485
2486,000000	64,951427
2485,000000	64,952178
2484,000000	64,955539
2483,000000	64,951214
2482,000000	64,943396
2481,000000	64,942826
2480,000000	64,945858
2479,000000	64,942306
2478,000000	64,936019
2477,000000	64,937034
2476,000000	64,940844
2475,000000	64,936861
2474,000000	64,929421
2473,000000	64,929392
2472,000000	64,932647
2471,000000	64,928282
2470,000000	64,920354
2469,000000	64,919852
2468,000000	64,923010
2467,000000	64,919107
2466,000000	64,912202
2465,000000	64,913020
2464,000000	64,917080
2463,000000	64,912830
2462,000000	64,904305
2461,000000	64,903450
2460,000000	64,907169
2459,000000	64,904151
2458,000000	64,897444
2457,000000	64,898081
2456,000000	64,902870
2455,000000	64,900866
2454,000000	64,895198
2453,000000	64,896668
2452,000000	64,902017
2451,000000	64,900586
2450,000000	64,895866
2449,000000	64,898506
2448,000000	64,904423
2447,000000	64,902097
2446,000000	64,895250
2445,000000	64,896025
2444,000000	64,901911
2443,000000	64,901503
2442,000000	64,897179
2441,000000	64,899551
2440,000000	64,905555
2439,000000	64,904184
2438,000000	64,898510
2437,000000	64,899601
2436,000000	64,904475
2435,000000	64,901944
2434,000000	64,894756
2433,000000	64,893690
2432,000000	64,895547
2431,000000	64,889343
2430,000000	64,878634
2429,000000	64,875375
2428,000000	64,876997
2427,000000	64,872093
2426,000000	64,863281
2425,000000	64,861894
2424,000000	64,865083
2423,000000	64,861149
2422,000000	64,852703
2421,000000	64,851599
2420,000000	64,855447
2419,000000	64,852311
2418,000000	64,844273
2417,000000	64,843117
2416,000000	64,846818
2415,000000	64,843440
2414,000000	64,834920
2413,000000	64,833480
2412,000000	64,837543
2411,000000	64,834397
2410,000000	64,824473
2409,000000	64,819803
2408,000000	64,820738
2407,000000	64,816929
2406,000000	64,809305
2405,000000	64,808351
2404,000000	64,812201
2403,000000	64,809265
2402,000000	64,801248
2401,000000	64,800769
2400,000000	64,806956
2399,000000	64,806569
2398,000000	64,798722
2397,000000	64,795603
2396,000000	64,797986
2395,000000	64,793084
2394,000000	64,777601
2393,000000	64,759458
2392,000000	64,733987
2391,000000	64,677482
2390,000000	64,568706
2389,000000	64,390447
2388,000000	64,106522
2387,000000	63,661116
2386,000000	62,997428
2385,000000	62,072888
2384,000000	60,843727
2383,000000	59,269431
2382,000000	57,349520
2381,000000	55,125182
2380,000000	52,661319
2379,000000	50,026484
2378,000000	47,302767
2377,000000	44,585201
2376,000000	41,944124
2375,000000	39,412185
2374,000000	37,007600
2373,000000	34,757847
2372,000000	32,681019
2371,000000	30,773201
2370,000000	29,027637
2369,000000	27,456203
2368,000000	26,074489
2367,000000	24,870978
2366,000000	23,831489
2365,000000	22,968323
2364,000000	22,302831
2363,000000	21,827891
2362,000000	21,511517
2361,000000	21,356097
2360,000000	21,405172
2359,000000	21,689147
2358,000000	22,211112
2357,000000	22,984090
2356,000000	24,063149
2355,000000	25,511875
2354,000000	27,398745
2353,000000	29,842863
2352,000000	32,893799
2351,000000	36,206587
2350,000000	38,863918
2349,000000	39,818571
2348,000000	38,697843
2347,000000	36,170254
2346,000000	33,419832
2345,000000	31,287348
2344,000000	29,938061
2343,000000	29,161337
2342,000000	28,765615
2341,000000	28,640073
2340,000000	28,681617
2339,000000	28,803489
2338,000000	28,992556
2337,000000	29,254561
2336,000000	29,539840
2335,000000	29,764649
2334,000000	29,888865
2333,000000	29,947278
2332,000000	30,028943
2331,000000	30,251745
2330,000000	30,710967
2329,000000	31,400928
2328,000000	32,199189
2327,000000	32,953176
2326,000000	33,582041
2325,000000	34,106246
2324,000000	34,614078
2323,000000	35,223521
2322,000000	36,030850
2321,000000	37,063056
2320,000000	38,282747
2319,000000	39,629080
2318,000000	41,024265
2317,000000	42,350433
2316,000000	43,490587
2315,000000	44,427920
2314,000000	45,265319
2313,000000	46,125174
2312,000000	47,057547
2311,000000	48,056906
2310,000000	49,109813
2309,000000	50,194151
2308,000000	51,270195
2307,000000	52,311981
2306,000000	53,319677
2305,000000	54,278454
2304,000000	55,143299
2303,000000	55,892482
2302,000000	56,559238
2301,000000	57,184256
2300,000000	57,768157
2299,000000	58,301627
2298,000000	58,801923
2297,000000	59,285893
2296,000000	59,741737
2295,000000	60,158337
2294,000000	60,555494
2293,000000	60,951503
2292,000000	61,331764
2291,000000	61,681026
2290,000000	62,015528
2289,000000	62,353214
2288,000000	62,681734
2287,000000	62,984496
2286,000000	63,266730
2285,000000	63,521829
2284,000000	63,706198
2283,000000	63,786539
2282,000000	63,784315
2281,000000	63,743750
2280,000000	63,680985
2279,000000	63,599330
2278,000000	63,522153
2277,000000	63,470867
2276,000000	63,434823
2275,000000	63,396755
2274,000000	63,367118
2273,000000	63,360366
2272,000000	63,363351
2271,000000	63,359233
2270,000000	63,359314
2269,000000	63,378572
2268,000000	63,404545
2267,000000	63,422025
2266,000000	63,443933
2265,000000	63,485749
2264,000000	63,534348
2263,000000	63,573324
2262,000000	63,614433
2261,000000	63,671880
2260,000000	63,731125
2259,000000	63,775365
2258,000000	63,817350
2257,000000	63,873288
2256,000000	63,930218
2255,000000	63,971942
2254,000000	64,011089
2253,000000	64,063376
2252,000000	64,115353
2251,000000	64,150533
2250,000000	64,181696
2249,000000	64,224421
2248,000000	64,264841
2247,000000	64,286498
2246,000000	64,303657
2245,000000	64,333934
2244,000000	64,364243
2243,000000	64,377337
2242,000000	64,386669
2241,000000	64,410105
2240,000000	64,435049
2239,000000	64,443851
2238,000000	64,448886
2237,000000	64,467587
2236,000000	64,487838
2235,000000	64,492824
2234,000000	64,495064
2233,000000	64,511412
2232,000000	64,528900
2231,000000	64,530526
2230,000000	64,529480
2229,000000	64,543454
2228,000000	64,559611
2227,000000	64,560421
2226,000000	64,558471
2225,000000	64,570687
2224,000000	64,583146
2223,000000	64,577305
2222,000000	64,566169
2221,000000	64,568394
2220,000000	64,572519
2219,000000	64,561892
2218,000000	64,550062
2217,000000	64,554322
2216,000000	64,560403
2215,000000	64,549411
2214,000000	64,534995
2213,000000	64,536790
2212,000000	64,542519
2211,000000	64,533357
2210,000000	64,521381
2209,000000	64,524549
2208,000000	64,529519
2207,000000	64,517955
2206,000000	64,503679
2205,000000	64,506564
2204,000000	64,513863
2203,000000	64,505953
2202,000000	64,494902
2201,000000	64,499588
2200,000000	64,506987
2199,000000	64,497510
2198,000000	64,483937
2197,000000	64,486346
2196,000000	64,493179
2195,000000	64,485224
2194,000000	64,474125
2193,000000	64,477830
2192,000000	64,483251
2191,000000	64,471868
2190,000000	64,458250
2189,000000	64,463000
2188,000000	64,472934
2187,000000	64,466805
2186,000000	64,456259
2185,000000	64,461074
2184,000000	64,468649
2183,000000	64,458987
2182,000000	64,444670
2181,000000	64,446372
2180,000000	64,451851
2179,000000	64,440670
2178,000000	64,424441
2177,000000	64,423023
2176,000000	64,424453
2175,000000	64,409240
2174,000000	64,389897
2173,000000	64,385872
2172,000000	64,384188
2171,000000	64,365681
2170,000000	64,345572
2169,000000	64,346147
2168,000000	64,354108
2167,000000	64,345951
2166,000000	64,331498
2165,000000	64,330348
2164,000000	64,330764
2163,000000	64,314005
2162,000000	64,294881
2161,000000	64,295087
2160,000000	64,300708
2159,000000	64,288897
2158,000000	64,271839
2157,000000	64,271629
2156,000000	64,275832
2155,000000	64,262342
2154,000000	64,243297
2153,000000	64,241226
2152,000000	64,244616
2151,000000	64,231620
2150,000000	64,213495
2149,000000	64,211336
2148,000000	64,213107
2147,000000	64,197857
2146,000000	64,178869
2145,000000	64,178405
2144,000000	64,183471
2143,000000	64,170327
2142,000000	64,150008
2141,000000	64,144468
2140,000000	64,141924
2139,000000	64,120435
2138,000000	64,093560
2137,000000	64,087120
2136,000000	64,092631
2135,000000	64,087442
2134,000000	64,078361
2133,000000	64,082208
2132,000000	64,085914
2131,000000	64,070385
2130,000000	64,050785
2129,000000	64,050003
2128,000000	64,054746
2127,000000	64,041644
2126,000000	64,022322
2125,000000	64,019483
2124,000000	64,021925
2123,000000	64,008146
2122,000000	63,990006
2121,000000	63,989108
2120,000000	63,992862
2119,000000	63,977977
2118,000000	63,954533
2117,000000	63,943769
2116,000000	63,937548
2115,000000	63,920939
2114,000000	63,909747
2113,000000	63,921504
2112,000000	63,936237
2111,000000	63,928975
2110,000000	63,914706
2109,000000	63,917552
2108,000000	63,924221
2107,000000	63,912414
2106,000000	63,896628
2105,000000	63,899967
2104,000000	63,908177
2103,000000	63,898324
2102,000000	63,883996
2101,000000	63,887252
2100,000000	63,893462
2099,000000	63,880719
2098,000000	63,864294
2097,000000	63,866849
2096,000000	63,873270
2095,000000	63,860559
2094,000000	63,841085
2093,000000	63,831346
2092,000000	63,813088
2091,000000	63,772638
2090,000000	63,743258
2089,000000	63,756395
2088,000000	63,786645
2087,000000	63,794819
2086,000000	63,791622
2085,000000	63,804456
2084,000000	63,818541
2083,000000	63,807237
2082,000000	63,786887
2081,000000	63,784292
2080,000000	63,782761
2079,000000	63,757823
2078,000000	63,732109
2077,000000	63,737159
2076,000000	63,753457
2075,000000	63,748001
2074,000000	63,736323
2073,000000	63,748165
2072,000000	63,765859
2071,000000	63,758738
2070,000000	63,742027
2069,000000	63,736864
2068,000000	63,710360
2067,000000	63,628825
2066,000000	63,539365
2065,000000	63,519977
2064,000000	63,571524
2063,000000	63,629299
2062,000000	63,662183
2061,000000	63,687996
2060,000000	63,710528
2059,000000	63,713941
2058,000000	63,708841
2057,000000	63,719142
2056,000000	63,733160
2055,000000	63,725153
2054,000000	63,708681
2053,000000	63,713020
2052,000000	63,726480
2051,000000	63,720452
2050,000000	63,706121
2049,000000	63,710401
2048,000000	63,719352
2047,000000	63,704827
2046,000000	63,679530
2045,000000	63,665982
2044,000000	63,641519
2043,000000	63,581312
2042,000000	63,526313
2041,000000	63,535740
2040,000000	63,595452
2039,000000	63,642597
2038,000000	63,660785
2037,000000	63,678996
2036,000000	63,698909
2035,000000	63,696890
2034,000000	63,683162
2033,000000	63,687399
2032,000000	63,698556
2031,000000	63,684561
2030,000000	63,656556
2029,000000	63,649776
2028,000000	63,657660
2027,000000	63,649569
2026,000000	63,633915
2025,000000	63,639079
2024,000000	63,652424
2023,000000	63,643250
2022,000000	63,619212
2021,000000	63,591675
2020,000000	63,518976
2019,000000	63,370273
2018,000000	63,221738
2017,000000	63,195039
2016,000000	63,305242
2015,000000	63,452069
2014,000000	63,556157
2013,000000	63,617881
2012,000000	63,649221
2011,000000	63,640485
2010,000000	63,607902
2009,000000	63,594763
2008,000000	63,607023
2007,000000	63,611466
2006,000000	63,603779
2005,000000	63,612408
2004,000000	63,632646
2003,000000	63,627243
2002,000000	63,596532
2001,000000	63,579004
2000,000000	63,578968
1999,000000	63,567149
1998,000000	63,553062
1997,000000	63,567299
1996,000000	63,556462
1995,000000	63,397771
1994,000000	63,071885
1993,000000	62,748035
1992,000000	62,628183
1991,000000	62,743446
1990,000000	62,959082
1989,000000	63,142542
1988,000000	63,265884
1987,000000	63,362210
1986,000000	63,445939
1985,000000	63,501078
1984,000000	63,517537
1983,000000	63,510003
1982,000000	63,500926
1981,000000	63,497267
1980,000000	63,491405
1979,000000	63,479297
1978,000000	63,467580
1977,000000	63,461035
1976,000000	63,455101
1975,000000	63,446122
1974,000000	63,439522
1973,000000	63,440807
1972,000000	63,436729
1971,000000	63,385169
1970,000000	63,235650
1969,000000	62,991152
1968,000000	62,758019
1967,000000	62,688019
1966,000000	62,830478
1965,000000	63,066953
1964,000000	63,234102
1963,000000	63,283732
1962,000000	63,277821
1961,000000	63,267746
1960,000000	63,252318
1959,000000	63,231874
1958,000000	63,221796
1957,000000	63,213899
1956,000000	63,191158
1955,000000	63,176385
1954,000000	63,202586
1953,000000	63,248378
1952,000000	63,266624
1951,000000	63,257066
1950,000000	63,243548
1949,000000	63,208976
1948,000000	63,126142
1947,000000	63,004462
1946,000000	62,820252
1945,000000	62,481335
1944,000000	62,005827
1943,000000	61,668514
1942,000000	61,770072
1941,000000	62,261716
1940,000000	62,777757
1939,000000	63,056516
1938,000000	63,147825
1937,000000	63,189544
1936,000000	63,196855
1935,000000	63,150407
1934,000000	63,108554
1933,000000	63,118545
1932,000000	63,137965
1931,000000	63,127553
1930,000000	63,120009
1929,000000	63,138183
1928,000000	63,139173
1927,000000	63,067954
1926,000000	62,875391
1925,000000	62,523354
1924,000000	62,106976
1923,000000	61,887765
1922,000000	61,969581
1921,000000	62,009611
1920,000000	61,588982
1919,000000	60,884476
1918,000000	60,598251
1917,000000	61,092027
1916,000000	61,949976
1915,000000	62,561414
1914,000000	62,783020
1913,000000	62,796384
1912,000000	62,663242
1911,000000	62,378353
1910,000000	62,127834
1909,000000	62,130036
1908,000000	62,322495
1907,000000	62,487744
1906,000000	62,576466
1905,000000	62,669750
1904,000000	62,743816
1903,000000	62,725561
1902,000000	62,680288
1901,000000	62,712031
1900,000000	62,760144
1899,000000	62,693272
1898,000000	62,515084
1897,000000	62,315252
1896,000000	62,140608
1895,000000	62,053035
1894,000000	62,128602
1893,000000	62,224146
1892,000000	61,995792
1891,000000	61,394130
1890,000000	60,913061
1889,000000	61,030907
1888,000000	61,597410
1887,000000	62,088991
1886,000000	62,292922
1885,000000	62,386641
1884,000000	62,483771
1883,000000	62,515461
1882,000000	62,491005
1881,000000	62,516486
1880,000000	62,566192
1879,000000	62,535413
1878,000000	62,474075
1877,000000	62,502512
1876,000000	62,569333
1875,000000	62,550669
1874,000000	62,462008
1873,000000	62,256136
1872,000000	61,606352
1871,000000	60,328161
1870,000000	58,942278
1869,000000	58,330674
1868,000000	58,804709
1867,000000	59,872047
1866,000000	60,914408
1865,000000	61,691752
1864,000000	62,165562
1863,000000	62,309225
1862,000000	62,241217
1861,000000	62,201050
1860,000000	62,249015
1859,000000	62,251795
1858,000000	62,202060
1857,000000	62,248585
1856,000000	62,375548
1855,000000	62,394915
1854,000000	62,304663
1853,000000	62,297765
1852,000000	62,356876
1851,000000	62,236321
1850,000000	61,911248
1849,000000	61,597993
1848,000000	61,177058
1847,000000	60,108280
1846,000000	58,296462
1845,000000	56,672093
1844,000000	56,429670
1843,000000	57,777161
1842,000000	59,749990
1841,000000	61,211271
1840,000000	61,765297
1839,000000	61,747497
1838,000000	61,627038
1837,000000	61,600781
1836,000000	61,653693
1835,000000	61,736187
1834,000000	61,698424
1833,000000	61,183855
1832,000000	59,967848
1831,000000	58,522242
1830,000000	57,827016
1829,000000	58,288939
1828,000000	59,138529
1827,000000	59,371059
1826,000000	59,017303
1825,000000	58,968368
1824,000000	59,672811
1823,000000	60,640127
1822,000000	61,272975
1821,000000	61,532026
1820,000000	61,614669
1819,000000	61,537368
1818,000000	61,343496
1817,000000	61,278317
1816,000000	61,436199
1815,000000	61,530128
1814,000000	61,271817
1813,000000	60,750704
1812,000000	60,250462
1811,000000	59,953375
1810,000000	59,953074
1809,000000	60,277379
1808,000000	60,740213
1807,000000	61,026093
1806,000000	61,022319
1805,000000	60,821364
1804,000000	60,381152
1803,000000	59,578788
1802,000000	58,655551
1801,000000	58,166256
1800,000000	58,334093
1799,000000	58,840048
1798,000000	59,342452
1797,000000	59,687357
1796,000000	59,517587
1795,000000	58,327787
1794,000000	56,327141
1793,000000	54,706299
1792,000000	54,591894
1791,000000	55,965670
1790,000000	57,895175
1789,000000	59,454007
1788,000000	60,132538
1787,000000	59,873361
1786,000000	59,172724
1785,000000	58,793464
1784,000000	58,961781
1783,000000	59,144016
1782,000000	58,916587
1781,000000	58,629847
1780,000000	58,786151
1779,000000	59,230517
1778,000000	59,456657
1777,000000	59,248902
1776,000000	58,461037
1775,000000	56,706639
1774,000000	54,104542
1773,000000	51,949478
1772,000000	51,660332
1771,000000	53,069534
1770,000000	54,656050
1769,000000	55,500651
1768,000000	56,155311
1767,000000	57,349235
1766,000000	58,655947
1765,000000	58,997730
1764,000000	58,023897
1763,000000	56,545556
1762,000000	55,744002
1761,000000	56,117012
1760,000000	57,074259
1759,000000	57,531721
1758,000000	57,122205
1757,000000	56,674371
1756,000000	57,059447
1755,000000	57,796724
1754,000000	57,471993
1753,000000	55,607673
1752,000000	53,389880
1751,000000	52,247092
1750,000000	52,417278
1749,000000	53,255811
1748,000000	54,289834
1747,000000	55,342094
1746,000000	56,096801
1745,000000	56,289750
1744,000000	56,098693
1743,000000	55,765330
1742,000000	55,097129
1741,000000	54,032464
1740,000000	53,374804
1739,000000	53,956547
1738,000000	54,935942
1737,000000	54,141101
1736,000000	50,743027
1735,000000	46,855193
1734,000000	45,555025
1733,000000	47,614413
1732,000000	51,062665
1731,000000	53,723345
1730,000000	55,197409
1729,000000	56,228057
1728,000000	57,149283
1727,000000	57,675644
1726,000000	57,679906
1725,000000	57,447275
1724,000000	57,293098
1723,000000	57,239126
1722,000000	56,925918
1721,000000	55,600695
1720,000000	52,712598
1719,000000	48,958434
1718,000000	46,257214
1717,000000	46,046958
1716,000000	47,899587
1715,000000	50,332598
1714,000000	52,550736
1713,000000	54,573167
1712,000000	56,151250
1711,000000	56,737165
1710,000000	56,440707
1709,000000	55,872631
1708,000000	55,041558
1707,000000	53,617107
1706,000000	52,276841
1705,000000	52,164063
1704,000000	52,581538
1703,000000	51,053095
1702,000000	46,828050
1701,000000	42,809696
1700,000000	42,231515
1699,000000	44,464982
1698,000000	46,133554
1697,000000	45,817289
1696,000000	45,604900
1695,000000	47,718359
1694,000000	51,518302
1693,000000	54,653867
1692,000000	55,832574
1691,000000	55,617482
1690,000000	55,135271
1689,000000	54,793950
1688,000000	53,876139
1687,000000	51,227911
1686,000000	46,923365
1685,000000	43,192758
1684,000000	42,719645
1683,000000	45,773441
1682,000000	49,894235
1681,000000	52,766388
1680,000000	54,194970
1679,000000	54,797558
1678,000000	54,255808
1677,000000	52,198644
1676,000000	49,903226
1675,000000	49,353470
1674,000000	50,705855
1673,000000	51,975307
1672,000000	51,524732
1671,000000	49,878890
1670,000000	48,787817
1669,000000	49,340914
1668,000000	51,300578
1667,000000	53,563269
1666,000000	54,828616
1665,000000	54,377856
1664,000000	52,813463
1663,000000	51,728391
1662,000000	52,171052
1661,000000	53,647674
1660,000000	54,933923
1659,000000	55,455392
1658,000000	55,246293
1657,000000	53,741173
1656,000000	49,810166
1655,000000	43,639480
1654,000000	38,011559
1653,000000	36,510722
1652,000000	40,051153
1651,000000	45,721421
1650,000000	49,391065
1649,000000	49,336429
1648,000000	47,122974
1647,000000	45,514166
1646,000000	46,086992
1645,000000	48,569888
1644,000000	51,561471
1643,000000	53,691421
1642,000000	54,473870
1641,000000	54,366246
1640,000000	53,821627
1639,000000	52,439020
1638,000000	49,622112
1637,000000	46,081048
1636,000000	43,915173
1635,000000	44,705969
1634,000000	47,876251
1633,000000	51,352438
1632,000000	53,470216
1631,000000	53,916132
1630,000000	53,283392
1629,000000	52,380118
1628,000000	51,817776
1627,000000	51,653926
1626,000000	51,326052
1625,000000	50,377756
1624,000000	49,288903
1623,000000	49,155842
1622,000000	50,363621
1621,000000	51,835264
1620,000000	51,888081
1619,000000	49,864451
1618,000000	46,886608
1617,000000	45,044322
1616,000000	45,657370
1615,000000	48,168742
1614,000000	50,756520
1613,000000	52,038564
1612,000000	52,053481
1611,000000	51,651618
1610,000000	51,353544
1609,000000	51,156322
1608,000000	51,056528
1607,000000	51,187697
1606,000000	51,466465
1605,000000	51,597040
1604,000000	51,510563
1603,000000	51,460980
1602,000000	51,605412
1601,000000	51,800095
1600,000000	51,899615
1599,000000	51,952992
1598,000000	51,994042
1597,000000	51,919075
1596,000000	51,722146
1595,000000	51,609948
1594,000000	51,719392
1593,000000	51,910320
1592,000000	51,994927
1591,000000	52,005955
1590,000000	52,074390
1589,000000	52,186243
1588,000000	52,235301
1587,000000	52,223141
1586,000000	52,234543
1585,000000	52,262871
1584,000000	52,219825
1583,000000	52,119468
1582,000000	52,105094
1581,000000	52,133892
1580,000000	51,684281
1579,000000	50,014170
1578,000000	47,089467
1577,000000	44,241192
1576,000000	43,426586
1575,000000	45,362929
1574,000000	48,503301
1573,000000	50,310791
1572,000000	49,647230
1571,000000	47,656312
1570,000000	46,342926
1569,000000	46,664339
1568,000000	48,028965
1567,000000	49,265325
1566,000000	49,756349
1565,000000	49,729612
1564,000000	49,504252
1563,000000	48,481623
1562,000000	45,360899
1561,000000	39,955815
1560,000000	34,570798
1559,000000	32,504804
1558,000000	34,764019
1557,000000	39,032648
1556,000000	42,375165
1555,000000	44,159213
1554,000000	45,588966
1553,000000	47,239284
1552,000000	48,405311
1551,000000	48,711539
1550,000000	48,861101
1549,000000	49,402923
1548,000000	49,745412
1547,000000	49,055378
1546,000000	47,439207
1545,000000	45,603090
1544,000000	43,769172
1543,000000	41,555250
1542,000000	38,853602
1541,000000	36,473904
1540,000000	35,878378
1539,000000	38,107080
1538,000000	42,532929
1537,000000	46,731933
1536,000000	48,320635
1535,000000	47,279753
1534,000000	45,893286
1533,000000	46,170671
1532,000000	47,883276
1531,000000	49,463911
1530,000000	49,942565
1529,000000	49,402414
1528,000000	48,243525
1527,000000	46,957748
1526,000000	46,134946
1525,000000	45,748526
1524,000000	44,810603
1523,000000	42,714038
1522,000000	40,649643
1521,000000	40,482427
1520,000000	42,278415
1519,000000	44,143566
1518,000000	44,776778
1517,000000	44,944103
1516,000000	45,872330
1515,000000	47,315362
1514,000000	48,122969
1513,000000	48,019062
1512,000000	47,638609
1511,000000	47,075503
1510,000000	45,430461
1509,000000	42,143463
1508,000000	38,251323
1507,000000	35,946056
1506,000000	36,854880
1505,000000	40,652870
1504,000000	45,220685
1503,000000	48,270208
1502,000000	48,968428
1501,000000	48,006723
1500,000000	46,344006
1499,000000	44,367297
1498,000000	42,367479
1497,000000	41,119854
1496,000000	41,388638
1495,000000	42,940632
1494,000000	44,528476
1493,000000	44,953849
1492,000000	44,066042
1491,000000	42,769503
1490,000000	42,186578
1489,000000	42,756870
1488,000000	44,093197
1487,000000	45,616610
1486,000000	47,109128
1485,000000	48,477482
1484,000000	49,357203
1483,000000	49,479061
1482,000000	49,244905
1481,000000	49,306487
1480,000000	49,571932
1479,000000	49,306997
1478,000000	48,270360
1477,000000	46,992387
1476,000000	45,762601
1475,000000	44,204286
1474,000000	42,350577
1473,000000	41,313401
1472,000000	42,175399
1471,000000	44,610178
1470,000000	47,210894
1469,000000	48,792577
1468,000000	48,928531
1467,000000	47,789695
1466,000000	46,168664
1465,000000	45,305114
1464,000000	45,879286
1463,000000	47,251065
1462,000000	48,060406
1461,000000	47,382862
1460,000000	45,014124
1459,000000	41,384897
1458,000000	37,851691
1457,000000	36,436438
1456,000000	38,126873
1455,000000	41,621934
1454,000000	44,578461
1453,000000	45,951105
1452,000000	46,346707
1451,000000	46,406255
1450,000000	46,068262
1449,000000	45,437958
1448,000000	45,234167
1447,000000	45,884973
1446,000000	46,924845
1445,000000	47,681373
1444,000000	48,023320
1443,000000	48,180683
1442,000000	48,272497
1441,000000	48,181468
1440,000000	47,516378
1439,000000	45,810802
1438,000000	43,346599
1437,000000	41,611322
1436,000000	42,051292
1435,000000	44,311589
1434,000000	46,475176
1433,000000	47,222495
1432,000000	46,921387
1431,000000	46,521719
1430,000000	46,391443
1429,000000	46,546622
1428,000000	47,037828
1427,000000	47,550439
1426,000000	47,459793
1425,000000	46,800932
1424,000000	46,397860
1423,000000	46,436139
1422,000000	45,842154
1421,000000	43,891238
1420,000000	41,688809
1419,000000	41,055874
1418,000000	42,344233
1417,000000	44,334941
1416,000000	45,886764
1415,000000	46,797534
1414,000000	47,213988
1413,000000	47,189161
1412,000000	46,937643
1411,000000	46,809848
1410,000000	46,837558
1409,000000	46,724727
1408,000000	46,314097
1407,000000	45,703879
1406,000000	45,047632
1405,000000	44,585631
1404,000000	44,642306
1403,000000	45,125977
1402,000000	45,309571
1401,000000	44,661084
1400,000000	43,687096
1399,000000	43,287803
1398,000000	43,482243
1397,000000	43,493106
1396,000000	43,041657
1395,000000	42,807668
1394,000000	43,415453
1393,000000	44,626811
1392,000000	45,716944
1391,000000	46,159956
1390,000000	45,786646
1389,000000	44,791443
1388,000000	43,830466
1387,000000	43,652718
1386,000000	44,339714
1385,000000	45,223515
1384,000000	45,719118
1383,000000	45,869002
1382,000000	45,950773
1381,000000	45,978049
1380,000000	45,874080
1379,000000	45,748610
1378,000000	45,663542
1377,000000	45,396699
1376,000000	44,790938
1375,000000	44,160405
1374,000000	44,014345
1373,000000	44,457801
1372,000000	45,091482
1371,000000	45,477508
1370,000000	45,519440
1369,000000	45,425754
1368,000000	45,432932
1367,000000	45,534599
1366,000000	45,445657
1365,000000	44,914903
1364,000000	44,101599
1363,000000	43,523310
1362,000000	43,550014
1361,000000	44,069811
1360,000000	44,700114
1359,000000	45,165324
1358,000000	45,396757
1357,000000	45,424996
1356,000000	45,336662
1355,000000	45,262012
1354,000000	45,274263
1353,000000	45,320334
1352,000000	45,314173
1351,000000	45,251028
1350,000000	45,184346
1349,000000	45,144665
1348,000000	45,128456
1347,000000	45,125635
1346,000000	45,121247
1345,000000	45,092573
1344,000000	45,003393
1343,000000	44,780341
1342,000000	44,351571
1341,000000	43,784660
1340,000000	43,336801
1339,000000	43,252454
1338,000000	43,516017
1337,000000	43,905328
1336,000000	44,247502
1335,000000	44,510976
1334,000000	44,686597
1333,000000	44,738229
1332,000000	44,693443
1331,000000	44,645427
1330,000000	44,630044
1329,000000	44,600057
1328,000000	44,539943
1327,000000	44,494743
1326,000000	44,472665
1325,000000	44,425142
1324,000000	44,340367
1323,000000	44,251259
1322,000000	44,140560
1321,000000	43,951129
1320,000000	43,714395
1319,000000	43,556754
1318,000000	43,538446
1317,000000	43,581184
1316,000000	43,584013
1315,000000	43,532646
1314,000000	43,465823
1313,000000	43,415292
1312,000000	43,404483
1311,000000	43,434568
1310,000000	43,453408
1309,000000	43,404757
1308,000000	43,311725
1307,000000	43,244961
1306,000000	43,213243
1305,000000	43,163887
1304,000000	43,085914
1303,000000	43,021984
1302,000000	42,980002
1301,000000	42,918958
1300,000000	42,831377
1299,000000	42,754048
1298,000000	42,693074
1297,000000	42,617818
1296,000000	42,533065
1295,000000	42,475609
1294,000000	42,436643
1293,000000	42,367625
1292,000000	42,264065
1291,000000	42,165995
1290,000000	42,077224
1289,000000	41,968995
1288,000000	41,858496
1287,000000	41,797346
1286,000000	41,777234
1285,000000	41,734386
1284,000000	41,650097
1283,000000	41,565454
1282,000000	41,493553
1281,000000	41,402163
1280,000000	41,289914
1279,000000	41,194621
1278,000000	41,117947
1277,000000	41,018946
1276,000000	40,889689
1275,000000	40,759356
1274,000000	40,623200
1273,000000	40,445989
1272,000000	40,241886
1271,000000	40,067580
1270,000000	39,929121
1269,000000	39,773330
1268,000000	39,578445
1267,000000	39,378343
1266,000000	39,188160
1265,000000	38,984503
1264,000000	38,768199
1263,000000	38,576972
1262,000000	38,425841
1261,000000	38,303839
1260,000000	38,229847
1259,000000	38,237274
1258,000000	38,300378
1257,000000	38,348841
1256,000000	38,360013
1255,000000	38,367052
1254,000000	38,375807
1253,000000	38,350279
1252,000000	38,286302
1251,000000	38,221782
1250,000000	38,165354
1249,000000	38,085900
1248,000000	37,980872
1247,000000	37,884195
1246,000000	37,800298
1245,000000	37,699012
1244,000000	37,582950
1243,000000	37,489231
1242,000000	37,417818
1241,000000	37,328151
1240,000000	37,213241
1239,000000	37,109231
1238,000000	37,023409
1237,000000	36,923142
1236,000000	36,803284
1235,000000	36,696896
1234,000000	36,608855
1233,000000	36,506166
1232,000000	36,383490
1231,000000	36,273339
1230,000000	36,181236
1229,000000	36,074430
1228,000000	35,945032
1227,000000	35,822233
1226,000000	35,713985
1225,000000	35,596240
1224,000000	35,467692
1223,000000	35,353956
1222,000000	35,251292
1221,000000	35,126380
1220,000000	34,978578
1219,000000	34,842459
1218,000000	34,723658
1217,000000	34,591838
1216,000000	34,441978
1215,000000	34,302563
1214,000000	34,178075
1213,000000	34,044256
1212,000000	33,904848
1211,000000	33,792137
1210,000000	33,705432
1209,000000	33,609386
1208,000000	33,498065
1207,000000	33,401418
1206,000000	33,322588
1205,000000	33,230526
1204,000000	33,121024
1203,000000	33,024405
1202,000000	32,945329
1201,000000	32,854063
1200,000000	32,745752
1199,000000	32,649518
1198,000000	32,570698
1197,000000	32,480882
1196,000000	32,373791
1195,000000	32,274670
1194,000000	32,186779
1193,000000	32,084329
1192,000000	31,965560
1191,000000	31,857663
1190,000000	31,762025
1189,000000	31,649920
1188,000000	31,519559
1187,000000	31,401674
1186,000000	31,300418
1185,000000	31,182724
1184,000000	31,034363
1183,000000	30,875791
1182,000000	30,717556
1181,000000	30,553694
1180,000000	30,403392
1179,000000	30,302236
1178,000000	30,242540
1177,000000	30,176002
1176,000000	30,083381
1175,000000	29,989878
1174,000000	29,906693
1173,000000	29,812187
1172,000000	29,700347
1171,000000	29,593796
1170,000000	29,497257
1169,000000	29,388073
1168,000000	29,263167
1167,000000	29,146700
1166,000000	29,042776
1165,000000	28,928737
1164,000000	28,802652
1163,000000	28,689080
1162,000000	28,590830
1161,000000	28,483353
1160,000000	28,363944
1159,000000	28,258043
1158,000000	28,169922
1157,000000	28,075134
1156,000000	27,969053
1155,000000	27,874361
1154,000000	27,793785
1153,000000	27,703256
1152,000000	27,599407
1151,000000	27,506413
1150,000000	27,427836
1149,000000	27,339201
1148,000000	27,235714
1147,000000	27,141305
1146,000000	27,062080
1145,000000	26,976969
1144,000000	26,882059
1143,000000	26,799168
1142,000000	26,732105
1141,000000	26,658797
1140,000000	26,573871
1139,000000	26,495598
1138,000000	26,424498
1137,000000	26,338845
1136,000000	26,237912
1135,000000	26,145485
1134,000000	26,064585
1133,000000	25,971632
1132,000000	25,862207
1131,000000	25,758346
1130,000000	25,665033
1129,000000	25,562481
1128,000000	25,448115
1127,000000	25,342917
1126,000000	25,249334
1125,000000	25,145785
1124,000000	25,028960
1123,000000	24,919941
1122,000000	24,821947
1121,000000	24,714587
1120,000000	24,595262
1119,000000	24,484874
1118,000000	24,385898
1117,000000	24,277283
1116,000000	24,156508
1115,000000	24,045346
1114,000000	23,947614
1113,000000	23,842628
1112,000000	23,726907
1111,000000	23,620993
1110,000000	23,529067
1109,000000	23,431957
1108,000000	23,327495
1107,000000	23,236264
1106,000000	23,161779
1105,000000	23,083843
1104,000000	22,998100
1103,000000	22,922346
1102,000000	22,857794
1101,000000	22,783844
1100,000000	22,697438
1099,000000	22,618750
1098,000000	22,551430
1097,000000	22,476562
1096,000000	22,391200
1095,000000	22,314786
1094,000000	22,250447
1093,000000	22,179352
1092,000000	22,098680
1091,000000	22,027604
1090,000000	21,968991
1089,000000	21,903385
1088,000000	21,827164
1087,000000	21,758828
1086,000000	21,701563
1085,000000	21,636319
1084,000000	21,558927
1083,000000	21,487098
1082,000000	21,425717
1081,000000	21,360577
1080,000000	21,292601
1079,000000	21,240579
1078,000000	21,205620
1077,000000	21,168307
1076,000000	21,126436
1075,000000	21,099305
1074,000000	21,088887
1073,000000	21,074364
1072,000000	21,050070
1071,000000	21,033304
1070,000000	21,028096
1069,000000	21,017804
1068,000000	20,999258
1067,000000	20,989542
1066,000000	20,991647
1065,000000	20,988835
1064,000000	20,978277
1063,000000	20,976548
1062,000000	20,985596
1061,000000	20,987186
1060,000000	20,976735
1059,000000	20,968233
1058,000000	20,959737
1057,000000	20,925649
1056,000000	20,851746
1055,000000	20,745906
1054,000000	20,614966
1053,000000	20,464261
1052,000000	20,325818
1051,000000	20,249625
1050,000000	20,260248
1049,000000	20,346389
1048,000000	20,492040
1047,000000	20,684812
1046,000000	20,890889
1045,000000	21,065054
1044,000000	21,193049
1043,000000	21,295245
1042,000000	21,383820
1041,000000	21,450457
1040,000000	21,497411
1039,000000	21,544508
1038,000000	21,597415
1037,000000	21,641280
1036,000000	21,673623
1035,000000	21,710267
1034,000000	21,753976
1033,000000	21,789002
1032,000000	21,813251
1031,000000	21,843251
1030,000000	21,882257
1029,000000	21,914156
1028,000000	21,935850
1027,000000	21,963107
1026,000000	21,999304
1025,000000	22,029076
1024,000000	22,049626
1023,000000	22,077330
1022,000000	22,117026
1021,000000	22,155312
1020,000000	22,189801
1019,000000	22,235814
1018,000000	22,296592
1017,000000	22,357830
1016,000000	22,416121
1015,000000	22,484761
1014,000000	22,565057
1013,000000	22,641436
1012,000000	22,710359
1011,000000	22,785198
1010,000000	22,867120
1009,000000	22,939914
1008,000000	22,999629
1007,000000	23,060058
1006,000000	23,124252
1005,000000	23,178253
1004,000000	23,219028
1003,000000	23,259817
1002,000000	23,302836
1001,000000	23,334044
1000,000000	23,351161
999,000000	23,368192
998,000000	23,387984
997,000000	23,397276
996,000000	23,393969
995,000000	23,392319
994,000000	23,394920
993,000000	23,388221
992,000000	23,369597
991,000000	23,352718
990,000000	23,340304
989,000000	23,319233
988,000000	23,287240
987,000000	23,258085
986,000000	23,234538
985,000000	23,203438
984,000000	23,162247
983,000000	23,124171
982,000000	23,092197
981,000000	23,053840
980,000000	23,007442
979,000000	22,966126
978,000000	22,931545
977,000000	22,888995
976,000000	22,835004
975,000000	22,783332
974,000000	22,738724
973,000000	22,689803
972,000000	22,633549
971,000000	22,581348
970,000000	22,535028
969,000000	22,482083
968,000000	22,419860
967,000000	22,360975
966,000000	22,308533
965,000000	22,251013
964,000000	22,185663
963,000000	22,123979
962,000000	22,068423
961,000000	22,007882
960,000000	21,940445
959,000000	21,877356
958,000000	21,820164
957,000000	21,757422
956,000000	21,688347
955,000000	21,625467
954,000000	21,570415
953,000000	21,510179
952,000000	21,442325
951,000000	21,379360
950,000000	21,324773
949,000000	21,267667
948,000000	21,205840
947,000000	21,150032
946,000000	21,101323
945,000000	21,047714
944,000000	20,987263
943,000000	20,931753
942,000000	20,882850
941,000000	20,828570
940,000000	20,766586
939,000000	20,708561
938,000000	20,656468
937,000000	20,598787
936,000000	20,533707
935,000000	20,473449
934,000000	20,420713
933,000000	20,364047
932,000000	20,300965
931,000000	20,242557
930,000000	20,190998
929,000000	20,134695
928,000000	20,071175
927,000000	20,011648
926,000000	19,958863
925,000000	19,901773
924,000000	19,837679
923,000000	19,777160
922,000000	19,722702
921,000000	19,663599
920,000000	19,596876
919,000000	19,532222
918,000000	19,471242
917,000000	19,403335
916,000000	19,326161
915,000000	19,250068
914,000000	19,177384
913,000000	19,098520
912,000000	19,012460
911,000000	18,931247
910,000000	18,859191
909,000000	18,787876
908,000000	18,715378
907,000000	18,650387
906,000000	18,593356
905,000000	18,533538
904,000000	18,468803
903,000000	18,408657
902,000000	18,354440
901,000000	18,295780
900,000000	18,231132
899,000000	18,171452
898,000000	18,120222
897,000000	18,068322
896,000000	18,012602
895,000000	17,960242
894,000000	17,911293
893,000000	17,856019
892,000000	17,792893
891,000000	17,730964
890,000000	17,670616
889,000000	17,601312
888,000000	17,520870
887,000000	17,438892
886,000000	17,357627
885,000000	17,268252
884,000000	17,169291
883,000000	17,070359
882,000000	16,974438
881,000000	16,875003
880,000000	16,774225
879,000000	16,685811
878,000000	16,616231
877,000000	16,560182
876,000000	16,516978
875,000000	16,494002
874,000000	16,490355
873,000000	16,494334
872,000000	16,501257
871,000000	16,516053
870,000000	16,536869
869,000000	16,552584
868,000000	16,559808
867,000000	16,565515
866,000000	16,570090
865,000000	16,564808
864,000000	16,548534
863,000000	16,530690
862,000000	16,514094
861,000000	16,491835
860,000000	16,462977
859,000000	16,435295
858,000000	16,409357
857,000000	16,376270
856,000000	16,334638
855,000000	16,293992
854,000000	16,258413
853,000000	16,221822
852,000000	16,182640
851,000000	16,147795
850,000000	16,119261
849,000000	16,090783
848,000000	16,061006
847,000000	16,035598
846,000000	16,014012
845,000000	15,987991
844,000000	15,955723
843,000000	15,923821
842,000000	15,893392
841,000000	15,857850
840,000000	15,816271
839,000000	15,775033
838,000000	15,734085
837,000000	15,684625
836,000000	15,622455
835,000000	15,551040
834,000000	15,468969
833,000000	15,368401
832,000000	15,247507
831,000000	15,113273
830,000000	14,970245
829,000000	14,818581
828,000000	14,665432
827,000000	14,526422
826,000000	14,414619
825,000000	14,337346
824,000000	14,304339
823,000000	14,323868
822,000000	14,389203
821,000000	14,478754
820,000000	14,571884
819,000000	14,657031
818,000000	14,725261
817,000000	14,769572
816,000000	14,791891
815,000000	14,800917
814,000000	14,800782
813,000000	14,790216
812,000000	14,771331
811,000000	14,749332
810,000000	14,724293
809,000000	14,692393
808,000000	14,655397
807,000000	14,619348
806,000000	14,584733
805,000000	14,547526
804,000000	14,508947
803,000000	14,474803
802,000000	14,445744
801,000000	14,417693
800,000000	14,391325
799,000000	14,372100
798,000000	14,361004
797,000000	14,353812
796,000000	14,349597
795,000000	14,351632
794,000000	14,360241
793,000000	14,372030
792,000000	14,385992
791,000000	14,403654
790,000000	14,423512
789,000000	14,441811
788,000000	14,457896
787,000000	14,473182
786,000000	14,486177
785,000000	14,494216
784,000000	14,498576
783,000000	14,502491
782,000000	14,505666
781,000000	14,505381
780,000000	14,501352
779,000000	14,495076
778,000000	14,486527
777,000000	14,475451
776,000000	14,463601
775,000000	14,452250
774,000000	14,439729
773,000000	14,424208
772,000000	14,406319
771,000000	14,386882
770,000000	14,365236
769,000000	14,341639
768,000000	14,317930
767,000000	14,294537
766,000000	14,270087
765,000000	14,244481
764,000000	14,218595
763,000000	14,191441
762,000000	14,161925
761,000000	14,132319
760,000000	14,105066
759,000000	14,077875
758,000000	14,047343
757,000000	14,015052
756,000000	13,984129
755,000000	13,953004
754,000000	13,919211
753,000000	13,885470
752,000000	13,854703
751,000000	13,823347
750,000000	13,787503
749,000000	13,750439
748,000000	13,715825
747,000000	13,679676
746,000000	13,638112
745,000000	13,595711
744,000000	13,556476
743,000000	13,515105
742,000000	13,468340
741,000000	13,425060
740,000000	13,392212
739,000000	13,361139
738,000000	13,321669
737,000000	13,278894
736,000000	13,240638
735,000000	13,200978
734,000000	13,152791
733,000000	13,103965
732,000000	13,062671
731,000000	13,020519
730,000000	12,969329
729,000000	12,919117
728,000000	12,878917
727,000000	12,837976
726,000000	12,788728
725,000000	12,743526
724,000000	12,699132
723,000000	12,612593
722,000000	12,460398
721,000000	12,302070
720,000000	12,231930
719,000000	12,268514
718,000000	12,338169
717,000000	12,368445
716,000000	12,350780
715,000000	12,310062
714,000000	12,260192
713,000000	12,206706
712,000000	12,156213
711,000000	12,106203
710,000000	12,047341
709,000000	11,982261
708,000000	11,920669
707,000000	11,858582
706,000000	11,786301
705,000000	11,711020
704,000000	11,644748
703,000000	11,578471
702,000000	11,496888
701,000000	11,406961
700,000000	11,322294
699,000000	11,233434
698,000000	11,127146
697,000000	11,016498
696,000000	10,916997
695,000000	10,812871
694,000000	10,685792
693,000000	10,551070
692,000000	10,424368
691,000000	10,283127
690,000000	10,111198
689,000000	9,948784
688,000000	9,840691
687,000000	9,769340
686,000000	9,697299
685,000000	9,637492
684,000000	9,610546
683,000000	9,579862
682,000000	9,508011
681,000000	9,434300
680,000000	9,406281
679,000000	9,387615
678,000000	9,331161
677,000000	9,281766
676,000000	9,291957
675,000000	9,310131
674,000000	9,284152
673,000000	9,252846
672,000000	9,130346
671,000000	8,543857
670,000000	7,280909
669,000000	5,892180
668,000000	5,419550
667,000000	6,289987
666,000000	7,774559
665,000000	8,806059
664,000000	9,046633
663,000000	8,912401
662,000000	8,797314
661,000000	8,703012
660,000000	8,551942
659,000000	8,418705
658,000000	8,361856
657,000000	8,302425
656,000000	8,189925
655,000000	8,095650
654,000000	8,064541
653,000000	8,027784
652,000000	7,936032
651,000000	7,841162
650,000000	7,786855
649,000000	7,740726
648,000000	7,686297
647,000000	7,667521
646,000000	7,690059
645,000000	7,687640
644,000000	7,631100
643,000000	7,575176
642,000000	7,551673
641,000000	7,517217
640,000000	7,445525
639,000000	7,378747
638,000000	7,340574
637,000000	7,289161
636,000000	7,202055
635,000000	7,123250
634,000000	7,080898
633,000000	7,035178
632,000000	6,956069
631,000000	6,875511
630,000000	6,819677
629,000000	6,757492
628,000000	6,664936
627,000000	6,573221
626,000000	6,509323
625,000000	6,448217
624,000000	6,367835
623,000000	6,292874
622,000000	6,239059
621,000000	6,169795
620,000000	6,053190
619,000000	5,919232
618,000000	5,816606
617,000000	5,753799
616,000000	5,713504
615,000000	5,685876
614,000000	5,656198
613,000000	5,599351
612,000000	5,514877
611,000000	5,433094
610,000000	5,365437
609,000000	5,287889
608,000000	5,190840
607,000000	5,099955
606,000000	5,029687
605,000000	4,959953
604,000000	4,880633
603,000000	4,811996
602,000000	4,761766
601,000000	4,705493
600,000000	4,632161
599,000000	4,564053
598,000000	4,511523
597,000000	4,451794
596,000000	4,372956
595,000000	4,295549
594,000000	4,229595
593,000000	4,155996
592,000000	4,069642
591,000000	3,997256
590,000000	3,948331
589,000000	3,893980
588,000000	3,815816
587,000000	3,735107
586,000000	3,669664
585,000000	3,603940
584,000000	3,525226
583,000000	3,449154
582,000000	3,386755
581,000000	3,322919
580,000000	3,249586
579,000000	3,182137
578,000000	3,125416
577,000000	3,060796
576,000000	2,985929
575,000000	2,925950
574,000000	2,887863
573,000000	2,843262
572,000000	2,776542
571,000000	2,709154
570,000000	2,656312
569,000000	2,601867
568,000000	2,536125
567,000000	2,478524
566,000000	2,438369
565,000000	2,394053
564,000000	2,332840
563,000000	2,274581
562,000000	2,232033
561,000000	2,186819
560,000000	2,126817
559,000000	2,070344
558,000000	2,029556
557,000000	1,986421
556,000000	1,929171
555,000000	1,875781
554,000000	1,838649
553,000000	1,799702
552,000000	1,745774
551,000000	1,693117
550,000000	1,654545
549,000000	1,614597
548,000000	1,561728
547,000000	1,511945
546,000000	1,477428
545,000000	1,443310
544,000000	1,397779
543,000000	1,354594
542,000000	1,323106
541,000000	1,288277
540,000000	1,240752
539,000000	1,196998
538,000000	1,167143
537,000000	1,135224
536,000000	1,090889
535,000000	1,050203
534,000000	1,023282
533,000000	0,993577
532,000000	0,950552
531,000000	0,911059
530,000000	0,886452
529,000000	0,859055
528,000000	0,815432
527,000000	0,771856
526,000000	0,744685
525,000000	0,722783
524,000000	0,693032
523,000000	0,664356
522,000000	0,644643
521,000000	0,621078
520,000000	0,585568
519,000000	0,553510
518,000000	0,536020
517,000000	0,520167
516,000000	0,495405
515,000000	0,473718
514,000000	0,463014
513,000000	0,449248
512,000000	0,423495
511,000000	0,400589
510,000000	0,390079
509,000000	0,377413
508,000000	0,352877
507,000000	0,331525
506,000000	0,323786
505,000000	0,314417
504,000000	0,291647
503,000000	0,269561
502,000000	0,260966
501,000000	0,254118
500,000000	0,237936
499,000000	0,223381
498,000000	0,219459
497,000000	0,213352
496,000000	0,195603
495,000000	0,179370
494,000000	0,174750
493,000000	0,169467
492,000000	0,153944
491,000000	0,140853
490,000000	0,139119
489,000000	0,135578
488,000000	0,120638
487,000000	0,107892
486,000000	0,107346
485,000000	0,105972
484,000000	0,093518
483,000000	0,082737
482,000000	0,083216
481,000000	0,082240
480,000000	0,070260
479,000000	0,060508
478,000000	0,062927
477,000000	0,064320
476,000000	0,054289
475,000000	0,045400
474,000000	0,047712
473,000000	0,048689
472,000000	0,038669
471,000000	0,031157
470,000000	0,036017
469,000000	0,039903
468,000000	0,032251
467,000000	0,025998
466,000000	0,031262
465,000000	0,034910
464,000000	0,026708
463,000000	0,019870
462,000000	0,024282
461,000000	0,026720
460,000000	0,017507
459,000000	0,010552
458,000000	0,016075
457,000000	0,020034
456,000000	0,011874
455,000000	0,005113
454,000000	0,010473
453,000000	0,014826
452,000000	0,008622
451,000000	0,004405
450,000000	0,010353
449,000000	0,013737
448,000000	0,006194
447,000000	0,006056
446,000000	0,009543
445,000000	0,013226
444,000000	0,006362
443,000000	0,002405
442,000000	0,006633
441,000000	0,011597
440,000000	0,004453
439,000000	0,004027
438,000000	0,008587
437,000000	0,013064
436,000000	0,007288
435,000000	0,006343
434,000000	0,008657
433,000000	0,012213
432,000000	0,005900
431,000000	0,006759
430,000000	0,006700
429,000000	0,010633
428,000000	0,005414
427,000000	0,003064
426,000000	0,006240
425,000000	0,010455
424,000000	0,003294
423,000000	0,004924
422,000000	0,008798
421,000000	0,013614
420,000000	0,007869
419,000000	0,006676
418,000000	0,008851
417,000000	0,011164
416,000000	0,004746
415,000000	0,007151
414,000000	0,006395
413,000000	0,011328
412,000000	0,007235
411,000000	0,007706
410,000000	0,008979
409,000000	0,011722
408,000000	0,006671
407,000000	0,005744
406,000000	0,009681
405,000000	0,014118
404,000000	0,007412
403,000000	0,005882
402,000000	0,009150
401,000000	0,012789
400,000000	0,008455
399,000000	0,010073
398,000000	0,012139
397,000000	0,015218
396,000000	0,009416
395,000000	0,008213
394,000000	0,009515
393,000000	0,010836
392,000000	0,007175
391,000000	0,010049
390,000000	0,010175
389,000000	0,012608
388,000000	0,008068
387,000000	0,010232
386,000000	0,010255
385,000000	0,012289
384,000000	0,005463
383,000000	0,007225
382,000000	0,008144
381,000000	0,011794
380,000000	0,007717
379,000000	0,008386
378,000000	0,010667
377,000000	0,013600
376,000000	0,008612
375,000000	0,010700
374,000000	0,012237
373,000000	0,014770
372,000000	0,006664
371,000000	0,007406
370,000000	0,009555
369,000000	0,015290
368,000000	0,008899
367,000000	0,006923
366,000000	0,009693
365,000000	0,013820
364,000000	0,008530
363,000000	0,010944
362,000000	0,013913
361,000000	0,017010
360,000000	0,009154
359,000000	0,010730
358,000000	0,011015
357,000000	0,013791
356,000000	0,006585
355,000000	0,005280
354,000000	0,008391
353,000000	0,013949
352,000000	0,008166
351,000000	0,009689
350,000000	0,012515
349,000000	0,015576
348,000000	0,006478
347,000000	0,008371
346,000000	0,008570
345,000000	0,013171
344,000000	0,007684
343,000000	0,007767
342,000000	0,007391
341,000000	0,011305
340,000000	0,004290
339,000000	0,010960
338,000000	0,012654
337,000000	0,016893
336,000000	0,010018
335,000000	0,009364
334,000000	0,011689
333,000000	0,016085
332,000000	0,010506
331,000000	0,008890
330,000000	0,012475
329,000000	0,018060
328,000000	0,009349
327,000000	0,008265
326,000000	0,013936
325,000000	0,018447
324,000000	0,011698
323,000000	0,011945
322,000000	0,014530
321,000000	0,018837
320,000000	0,012488
319,000000	0,007671
318,000000	0,014005
317,000000	0,019541
316,000000	0,007678
315,000000	0,006190
314,000000	0,002847
313,000000	0,009661
312,000000	0,005981
311,000000	0,004775
310,000000	0,008958
309,000000	0,015621
308,000000	0,007082
307,000000	0,005456
306,000000	0,012028
305,000000	0,017953
304,000000	0,009344
303,000000	0,008339
302,000000	0,011018
301,000000	0,016253
300,000000	0,010133
299,000000	0,006136
298,000000	0,010456
297,000000	0,016719
296,000000	0,008532
295,000000	0,007731
294,000000	0,012345
293,000000	0,018183
292,000000	0,011368
291,000000	0,003692
290,000000	0,009510
289,000000	0,016841
288,000000	0,009371
287,000000	0,003890
286,000000	0,007581
285,000000	0,015651
284,000000	0,010246
283,000000	0,003272
282,000000	0,010402
281,000000	0,020383
280,000000	0,014983
279,000000	0,003062
278,000000	0,008154
277,000000	0,015918
276,000000	0,013649
275,000000	0,006836
274,000000	0,007132
273,000000	0,011094
272,000000	0,004924
271,000000	0,004852
270,000000	0,007547
269,000000	0,016543
268,000000	0,013920
267,000000	0,004217
266,000000	0,005455
265,000000	0,014099
264,000000	0,013720
263,000000	0,008454
262,000000	0,008963
261,000000	0,013514
260,000000	0,009501
259,000000	0,005946
258,000000	0,007427
257,000000	0,014037
256,000000	0,011745
255,000000	0,005112
254,000000	0,005671
253,000000	0,011313
252,000000	0,010676
251,000000	0,008200
250,000000	0,011370
249,000000	0,016764
248,000000	0,010342
247,000000	0,004418
246,000000	0,006971
245,000000	0,012533
244,000000	0,008102
243,000000	0,005557
242,000000	0,008500
241,000000	0,013798
240,000000	0,009871
239,000000	0,006820
238,000000	0,007844
237,000000	0,012834
236,000000	0,007383
235,000000	0,006216
234,000000	0,010348
233,000000	0,015828
232,000000	0,006498
231,000000	0,005544
230,000000	0,008575
229,000000	0,013582
228,000000	0,008454
227,000000	0,006080
226,000000	0,007824
225,000000	0,015010
224,000000	0,006815
223,000000	0,006351
222,000000	0,012538
221,000000	0,018670
220,000000	0,011931
219,000000	0,002554
218,000000	0,003123
217,000000	0,011008
216,000000	0,009856
215,000000	0,005178
214,000000	0,008551
213,000000	0,014995
212,000000	0,007096
211,000000	0,005288
210,000000	0,008982
209,000000	0,013637
208,000000	0,009258
207,000000	0,001923
206,000000	0,005857
205,000000	0,011809
204,000000	0,008242
203,000000	0,006054
202,000000	0,011396
201,000000	0,018514
200,000000	0,011553
