PE IR       SUBTECH     SPECTRUM    ASCII       PEDS        4.00        
   -1
polystyrene.ASC
25/04/22
09:17:59.00
25/04/22
09:17:59.00
Praktikum
Sample 014 By Praktikum date Dienstag, April 22 2025
200,000000
#HDR
-1
-1
#GR
cm-1
EGY
1.0
0.0
4000,000000
-1,000000
3801
8
52,028879
0,000234
#DATA
4000,000000	36,332173
3999,000000	36,366341
3998,000000	36,398662
3997,000000	36,432229
3996,000000	36,474141
3995,000000	36,527175
3994,000000	36,585252
3993,000000	36,640534
3992,000000	36,693360
3991,000000	36,751547
3990,000000	36,819214
3989,000000	36,889868
3988,000000	36,951987
3987,000000	36,998634
3986,000000	37,029856
3985,000000	37,049264
3984,000000	37,061948
3983,000000	37,074336
3982,000000	37,091236
3981,000000	37,110706
3980,000000	37,124061
3979,000000	37,122716
3978,000000	37,106196
3977,000000	37,083815
3976,000000	37,068846
3975,000000	37,070633
3974,000000	37,089856
3973,000000	37,120240
3972,000000	37,155105
3971,000000	37,192809
3970,000000	37,236526
3969,000000	37,288747
3968,000000	37,344545
3967,000000	37,389203
3966,000000	37,404977
3965,000000	37,385397
3964,000000	37,346044
3963,000000	37,317110
3962,000000	37,320119
3961,000000	37,351866
3960,000000	37,392767
3959,000000	37,428272
3958,000000	37,458497
3957,000000	37,488244
3956,000000	37,513506
3955,000000	37,519272
3954,000000	37,486452
3953,000000	37,401296
3952,000000	37,267585
3951,000000	37,118112
3950,000000	37,009136
3949,000000	36,986478
3948,000000	37,040961
3947,000000	37,099567
3946,000000	37,082684
3945,000000	36,983711
3944,000000	36,889099
3943,000000	36,902560
3942,000000	37,045212
3941,000000	37,245010
3940,000000	37,420058
3939,000000	37,543454
3938,000000	37,615402
3937,000000	37,603264
3936,000000	37,455354
3935,000000	37,179180
3934,000000	36,875247
3933,000000	36,677426
3932,000000	36,661599
3931,000000	36,807849
3930,000000	37,020937
3929,000000	37,179223
3928,000000	37,204386
3927,000000	37,118000
3926,000000	37,023401
3925,000000	37,010344
3924,000000	37,068358
3923,000000	37,104444
3922,000000	37,035466
3921,000000	36,852497
3920,000000	36,618573
3919,000000	36,437075
3918,000000	36,418451
3917,000000	36,623472
3916,000000	37,009062
3915,000000	37,444313
3914,000000	37,802298
3913,000000	38,043806
3912,000000	38,200845
3911,000000	38,291544
3910,000000	38,262471
3909,000000	38,007929
3908,000000	37,444092
3907,000000	36,593126
3906,000000	35,619534
3905,000000	34,761493
3904,000000	34,185052
3903,000000	33,904419
3902,000000	33,860268
3901,000000	34,053330
3900,000000	34,551765
3899,000000	35,349088
3898,000000	36,270301
3897,000000	37,039857
3896,000000	37,426294
3895,000000	37,339358
3894,000000	36,881331
3893,000000	36,358431
3892,000000	36,133725
3891,000000	36,317738
3890,000000	36,600760
3889,000000	36,538450
3888,000000	36,037001
3887,000000	35,487687
3886,000000	35,338356
3885,000000	35,609929
3884,000000	35,924804
3883,000000	35,974777
3882,000000	35,860185
3881,000000	35,938859
3880,000000	36,395541
3879,000000	37,020404
3878,000000	37,413454
3877,000000	37,379197
3876,000000	37,075671
3875,000000	36,739934
3874,000000	36,357681
3873,000000	35,736349
3872,000000	34,913154
3871,000000	34,304719
3870,000000	34,296084
3869,000000	34,772848
3868,000000	35,235273
3867,000000	35,354430
3866,000000	35,266539
3865,000000	35,308455
3864,000000	35,624199
3863,000000	36,124517
3862,000000	36,684759
3861,000000	37,224644
3860,000000	37,592270
3859,000000	37,477507
3858,000000	36,531749
3857,000000	34,650389
3856,000000	32,234587
3855,000000	30,152435
3854,000000	29,277723
3853,000000	29,917710
3852,000000	31,658349
3851,000000	33,752866
3850,000000	35,631564
3849,000000	37,046234
3848,000000	37,913526
3847,000000	38,211806
3846,000000	38,039972
3845,000000	37,618282
3844,000000	37,133734
3843,000000	36,599064
3842,000000	35,901328
3841,000000	34,992049
3840,000000	34,035725
3839,000000	33,361884
3838,000000	33,247534
3837,000000	33,693128
3836,000000	34,419451
3835,000000	35,105706
3834,000000	35,634030
3833,000000	36,101686
3832,000000	36,622918
3831,000000	37,165220
3830,000000	37,579762
3829,000000	37,777983
3828,000000	37,835614
3827,000000	37,870356
3826,000000	37,802018
3825,000000	37,331879
3824,000000	36,304191
3823,000000	35,071798
3822,000000	34,301340
3821,000000	34,306384
3820,000000	34,679876
3819,000000	34,777686
3818,000000	34,483871
3817,000000	34,330012
3816,000000	34,848930
3815,000000	35,995587
3814,000000	37,285251
3813,000000	38,284448
3812,000000	38,811449
3811,000000	38,779074
3810,000000	38,160627
3809,000000	37,201002
3808,000000	36,435201
3807,000000	36,243939
3806,000000	36,397294
3805,000000	36,255403
3804,000000	35,509583
3803,000000	34,605102
3802,000000	34,288013
3801,000000	34,804712
3800,000000	35,716492
3799,000000	36,466671
3798,000000	36,950465
3797,000000	37,430146
3796,000000	38,084260
3795,000000	38,810102
3794,000000	39,414449
3793,000000	39,825633
3792,000000	40,086805
3791,000000	40,250530
3790,000000	40,332136
3789,000000	40,320008
3788,000000	40,205111
3787,000000	40,031143
3786,000000	39,899627
3785,000000	39,877614
3784,000000	39,887928
3783,000000	39,761344
3782,000000	39,436124
3781,000000	39,072745
3780,000000	38,931151
3779,000000	39,132519
3778,000000	39,567551
3777,000000	40,023469
3776,000000	40,351833
3775,000000	40,482966
3774,000000	40,336284
3773,000000	39,845053
3772,000000	39,126469
3771,000000	38,511596
3770,000000	38,269288
3769,000000	38,339151
3768,000000	38,463114
3767,000000	38,558674
3766,000000	38,778899
3765,000000	39,179219
3764,000000	39,511239
3763,000000	39,484110
3762,000000	39,102065
3761,000000	38,630690
3760,000000	38,322388
3759,000000	38,270384
3758,000000	38,408512
3757,000000	38,486844
3756,000000	38,126022
3755,000000	37,090539
3754,000000	35,528731
3753,000000	33,886712
3752,000000	32,640555
3751,000000	32,127755
3750,000000	32,403384
3749,000000	33,041207
3748,000000	33,261667
3747,000000	32,630378
3746,000000	31,658073
3745,000000	31,406386
3744,000000	32,400712
3743,000000	34,150592
3742,000000	35,749707
3741,000000	36,640803
3740,000000	36,727282
3739,000000	36,109542
3738,000000	35,047379
3737,000000	34,002444
3736,000000	33,381709
3735,000000	33,251845
3734,000000	33,475316
3733,000000	34,034449
3732,000000	34,974873
3731,000000	36,089552
3730,000000	36,932630
3729,000000	37,245230
3728,000000	37,189793
3727,000000	37,091306
3726,000000	37,091212
3725,000000	37,141676
3724,000000	37,218819
3723,000000	37,395093
3722,000000	37,725792
3721,000000	38,174333
3720,000000	38,669229
3719,000000	39,166947
3718,000000	39,601794
3717,000000	39,792137
3716,000000	39,483217
3715,000000	38,573883
3714,000000	37,307735
3713,000000	36,179344
3712,000000	35,609009
3711,000000	35,702924
3710,000000	36,309197
3709,000000	37,199756
3708,000000	38,147327
3707,000000	38,917578
3706,000000	39,304697
3705,000000	39,247125
3704,000000	38,892790
3703,000000	38,540014
3702,000000	38,469887
3701,000000	38,755452
3700,000000	39,224983
3699,000000	39,642904
3698,000000	39,923172
3697,000000	40,109589
3696,000000	40,178012
3695,000000	39,974365
3694,000000	39,377547
3693,000000	38,419333
3692,000000	37,236354
3691,000000	36,053453
3690,000000	35,250445
3689,000000	35,250726
3688,000000	36,158061
3687,000000	37,579858
3686,000000	38,946642
3685,000000	39,940855
3684,000000	40,540042
3683,000000	40,786407
3682,000000	40,698841
3681,000000	40,303705
3680,000000	39,549814
3679,000000	38,272336
3678,000000	36,527326
3677,000000	34,915099
3676,000000	34,234027
3675,000000	34,636605
3674,000000	35,385515
3673,000000	35,649233
3672,000000	35,379950
3671,000000	35,245095
3670,000000	35,813504
3669,000000	37,037844
3668,000000	38,478175
3667,000000	39,757920
3666,000000	40,723193
3665,000000	41,356347
3664,000000	41,704270
3663,000000	41,861352
3662,000000	41,893806
3661,000000	41,743043
3660,000000	41,265985
3659,000000	40,437175
3658,000000	39,522821
3657,000000	38,954721
3656,000000	38,921976
3655,000000	39,089394
3654,000000	38,816858
3653,000000	37,748247
3652,000000	36,139331
3651,000000	34,623353
3650,000000	33,743725
3649,000000	33,723348
3648,000000	34,522490
3647,000000	35,904067
3646,000000	37,464478
3645,000000	38,796953
3644,000000	39,725926
3643,000000	40,327980
3642,000000	40,731501
3641,000000	40,980879
3640,000000	41,098986
3639,000000	41,145564
3638,000000	41,135635
3637,000000	41,007735
3636,000000	40,751832
3635,000000	40,454925
3634,000000	40,084665
3633,000000	39,339020
3632,000000	37,950911
3631,000000	36,193641
3630,000000	34,873585
3629,000000	34,684195
3628,000000	35,613535
3627,000000	37,058710
3626,000000	38,396635
3625,000000	39,321917
3624,000000	39,729118
3623,000000	39,559920
3622,000000	38,892556
3621,000000	38,065717
3620,000000	37,534101
3619,000000	37,550210
3618,000000	37,992183
3617,000000	38,507478
3616,000000	38,817702
3615,000000	38,899079
3614,000000	38,893659
3613,000000	38,884025
3612,000000	38,803842
3611,000000	38,594638
3610,000000	38,390598
3609,000000	38,453634
3608,000000	38,910649
3607,000000	39,621864
3606,000000	40,316427
3605,000000	40,801605
3604,000000	41,026435
3603,000000	41,036269
3602,000000	40,935206
3601,000000	40,842403
3600,000000	40,805068
3599,000000	40,762701
3598,000000	40,638220
3597,000000	40,454090
3596,000000	40,330218
3595,000000	40,373240
3594,000000	40,575248
3593,000000	40,783193
3592,000000	40,757509
3591,000000	40,331297
3590,000000	39,600117
3589,000000	38,930367
3588,000000	38,709282
3587,000000	39,057657
3586,000000	39,791140
3585,000000	40,616440
3584,000000	41,320120
3583,000000	41,816952
3582,000000	42,116872
3581,000000	42,284224
3580,000000	42,388899
3579,000000	42,465079
3578,000000	42,518108
3577,000000	42,560322
3576,000000	42,616007
3575,000000	42,692531
3574,000000	42,762492
3573,000000	42,753912
3572,000000	42,540357
3571,000000	41,995822
3570,000000	41,141640
3569,000000	40,241886
3568,000000	39,672375
3567,000000	39,652862
3566,000000	40,106151
3565,000000	40,770150
3564,000000	41,401369
3563,000000	41,884429
3562,000000	42,216695
3561,000000	42,451140
3560,000000	42,642086
3559,000000	42,808535
3558,000000	42,930933
3557,000000	42,973398
3556,000000	42,911025
3555,000000	42,754588
3554,000000	42,571234
3553,000000	42,460258
3552,000000	42,465010
3551,000000	42,508573
3550,000000	42,454961
3549,000000	42,249638
3548,000000	41,977307
3547,000000	41,781533
3546,000000	41,753017
3545,000000	41,895010
3544,000000	42,151658
3543,000000	42,442440
3542,000000	42,690808
3541,000000	42,848629
3540,000000	42,902903
3539,000000	42,868704
3538,000000	42,790082
3537,000000	42,733425
3536,000000	42,743925
3535,000000	42,800988
3534,000000	42,835977
3533,000000	42,798420
3532,000000	42,686894
3531,000000	42,525672
3530,000000	42,345277
3529,000000	42,187431
3528,000000	42,088178
3527,000000	42,041380
3526,000000	42,010990
3525,000000	41,991442
3524,000000	42,025272
3523,000000	42,141008
3522,000000	42,303441
3521,000000	42,449714
3520,000000	42,554020
3519,000000	42,630477
3518,000000	42,691905
3517,000000	42,734568
3516,000000	42,754449
3515,000000	42,750634
3514,000000	42,712293
3513,000000	42,625390
3512,000000	42,501231
3511,000000	42,387929
3510,000000	42,340454
3509,000000	42,372145
3508,000000	42,431232
3507,000000	42,434826
3506,000000	42,341913
3505,000000	42,198206
3504,000000	42,100479
3503,000000	42,113170
3502,000000	42,223900
3501,000000	42,369620
3500,000000	42,489933
3499,000000	42,555998
3498,000000	42,574960
3497,000000	42,579740
3496,000000	42,603038
3495,000000	42,650588
3494,000000	42,701998
3493,000000	42,736249
3492,000000	42,744761
3491,000000	42,724918
3490,000000	42,681750
3489,000000	42,639636
3488,000000	42,629035
3487,000000	42,649948
3486,000000	42,664125
3485,000000	42,636845
3484,000000	42,576993
3483,000000	42,528157
3482,000000	42,528574
3481,000000	42,586364
3480,000000	42,679520
3479,000000	42,769507
3478,000000	42,825359
3477,000000	42,845755
3476,000000	42,855020
3475,000000	42,874036
3474,000000	42,902829
3473,000000	42,931749
3472,000000	42,955320
3471,000000	42,969121
3470,000000	42,967461
3469,000000	42,954294
3468,000000	42,945566
3467,000000	42,950351
3466,000000	42,958225
3465,000000	42,954710
3464,000000	42,942477
3463,000000	42,938363
3462,000000	42,954296
3461,000000	42,988535
3460,000000	43,030661
3459,000000	43,069078
3458,000000	43,097381
3457,000000	43,117742
3456,000000	43,135558
3455,000000	43,150681
3454,000000	43,159557
3453,000000	43,160687
3452,000000	43,145579
3451,000000	43,088541
3450,000000	42,969488
3449,000000	42,815284
3448,000000	42,696883
3447,000000	42,666346
3446,000000	42,707309
3445,000000	42,763721
3444,000000	42,804528
3443,000000	42,841480
3442,000000	42,891438
3441,000000	42,947745
3440,000000	42,994227
3439,000000	43,027866
3438,000000	43,056526
3437,000000	43,084532
3436,000000	43,110068
3435,000000	43,132001
3434,000000	43,152239
3433,000000	43,173280
3432,000000	43,197437
3431,000000	43,226849
3430,000000	43,261579
3429,000000	43,299098
3428,000000	43,336765
3427,000000	43,371894
3426,000000	43,397401
3425,000000	43,401019
3424,000000	43,375166
3423,000000	43,330360
3422,000000	43,295439
3421,000000	43,299583
3420,000000	43,350797
3419,000000	43,431149
3418,000000	43,512478
3417,000000	43,575869
3416,000000	43,617753
3415,000000	43,643485
3414,000000	43,659949
3413,000000	43,672851
3412,000000	43,685819
3411,000000	43,699670
3410,000000	43,713602
3409,000000	43,727452
3408,000000	43,741575
3407,000000	43,754593
3406,000000	43,763804
3405,000000	43,769018
3404,000000	43,774725
3403,000000	43,786636
3402,000000	43,805352
3401,000000	43,824832
3400,000000	43,839582
3399,000000	43,853417
3398,000000	43,876784
3397,000000	43,912171
3396,000000	43,946886
3395,000000	43,967961
3394,000000	43,982728
3393,000000	44,015203
3392,000000	44,079193
3391,000000	44,162117
3390,000000	44,238904
3389,000000	44,294876
3388,000000	44,330688
3387,000000	44,353987
3386,000000	44,375058
3385,000000	44,405758
3384,000000	44,452106
3383,000000	44,507876
3382,000000	44,561560
3381,000000	44,608859
3380,000000	44,653489
3379,000000	44,697946
3378,000000	44,740295
3377,000000	44,779523
3376,000000	44,817735
3375,000000	44,855974
3374,000000	44,892145
3373,000000	44,923727
3372,000000	44,948933
3371,000000	44,965203
3370,000000	44,970984
3369,000000	44,969934
3368,000000	44,970733
3367,000000	44,981600
3366,000000	45,005487
3365,000000	45,039215
3364,000000	45,075776
3363,000000	45,109214
3362,000000	45,139243
3361,000000	45,169404
3360,000000	45,199576
3359,000000	45,223920
3358,000000	45,239004
3357,000000	45,250338
3356,000000	45,266300
3355,000000	45,288068
3354,000000	45,309834
3353,000000	45,327030
3352,000000	45,339936
3351,000000	45,350279
3350,000000	45,358767
3349,000000	45,365843
3348,000000	45,371550
3347,000000	45,374537
3346,000000	45,373468
3345,000000	45,369306
3344,000000	45,364266
3343,000000	45,358987
3342,000000	45,351993
3341,000000	45,340495
3340,000000	45,321302
3339,000000	45,293954
3338,000000	45,264886
3337,000000	45,245651
3336,000000	45,243589
3335,000000	45,255428
3334,000000	45,271700
3333,000000	45,285013
3332,000000	45,291837
3331,000000	45,289868
3330,000000	45,278281
3329,000000	45,260059
3328,000000	45,240879
3327,000000	45,225364
3326,000000	45,215727
3325,000000	45,212712
3324,000000	45,215563
3323,000000	45,221499
3322,000000	45,226884
3321,000000	45,229214
3320,000000	45,227944
3319,000000	45,224029
3318,000000	45,218408
3317,000000	45,210130
3316,000000	45,197159
3315,000000	45,180490
3314,000000	45,165121
3313,000000	45,153882
3312,000000	45,142977
3311,000000	45,128842
3310,000000	45,117727
3309,000000	45,121220
3308,000000	45,141997
3307,000000	45,170394
3306,000000	45,196474
3305,000000	45,219321
3304,000000	45,241750
3303,000000	45,262637
3302,000000	45,278714
3301,000000	45,289525
3300,000000	45,296981
3299,000000	45,303209
3298,000000	45,311023
3297,000000	45,322465
3296,000000	45,334559
3295,000000	45,341163
3294,000000	45,341990
3293,000000	45,345543
3292,000000	45,360131
3291,000000	45,385768
3290,000000	45,417904
3289,000000	45,453767
3288,000000	45,490847
3287,000000	45,523665
3286,000000	45,547733
3285,000000	45,565158
3284,000000	45,581988
3283,000000	45,601410
3282,000000	45,622326
3281,000000	45,642308
3280,000000	45,658664
3279,000000	45,668537
3278,000000	45,671529
3277,000000	45,671903
3276,000000	45,676358
3275,000000	45,690335
3274,000000	45,716732
3273,000000	45,755499
3272,000000	45,802500
3271,000000	45,850584
3270,000000	45,893783
3269,000000	45,929599
3268,000000	45,957464
3267,000000	45,977928
3266,000000	45,994217
3265,000000	46,011128
3264,000000	46,030416
3263,000000	46,049281
3262,000000	46,064645
3261,000000	46,076800
3260,000000	46,087241
3259,000000	46,095274
3258,000000	46,098678
3257,000000	46,097358
3256,000000	46,095851
3255,000000	46,102115
3254,000000	46,121992
3253,000000	46,152945
3252,000000	46,184913
3251,000000	46,208839
3250,000000	46,221629
3249,000000	46,221692
3248,000000	46,205858
3247,000000	46,177330
3246,000000	46,151914
3245,000000	46,146764
3244,000000	46,162685
3243,000000	46,184810
3242,000000	46,200483
3241,000000	46,208322
3240,000000	46,210636
3239,000000	46,206783
3238,000000	46,197531
3237,000000	46,187431
3236,000000	46,178186
3235,000000	46,165787
3234,000000	46,148296
3233,000000	46,130604
3232,000000	46,117019
3231,000000	46,104870
3230,000000	46,090354
3229,000000	46,076146
3228,000000	46,067548
3227,000000	46,064356
3226,000000	46,061106
3225,000000	46,052792
3224,000000	46,035991
3223,000000	46,007882
3222,000000	45,970148
3221,000000	45,932707
3220,000000	45,907248
3219,000000	45,895040
3218,000000	45,884557
3217,000000	45,863947
3216,000000	45,833909
3215,000000	45,805921
3214,000000	45,787867
3213,000000	45,774776
3212,000000	45,756457
3211,000000	45,731679
3210,000000	45,709942
3209,000000	45,698273
3208,000000	45,692269
3207,000000	45,682994
3206,000000	45,668221
3205,000000	45,651849
3204,000000	45,635804
3203,000000	45,618069
3202,000000	45,597097
3201,000000	45,573754
3200,000000	45,550786
3199,000000	45,534976
3198,000000	45,536786
3197,000000	45,561928
3196,000000	45,603820
3195,000000	45,648981
3194,000000	45,689341
3193,000000	45,724713
3192,000000	45,756109
3191,000000	45,782486
3190,000000	45,803212
3189,000000	45,818116
3188,000000	45,825781
3187,000000	45,827261
3186,000000	45,830606
3185,000000	45,845691
3184,000000	45,873383
3183,000000	45,904063
3182,000000	45,926636
3181,000000	45,936667
3180,000000	45,937844
3179,000000	45,940443
3178,000000	45,955677
3177,000000	45,985452
3176,000000	46,018319
3175,000000	46,039806
3174,000000	46,044774
3173,000000	46,034818
3172,000000	46,008317
3171,000000	45,960125
3170,000000	45,889913
3169,000000	45,802196
3168,000000	45,699106
3167,000000	45,581835
3166,000000	45,459023
3165,000000	45,347076
3164,000000	45,260821
3163,000000	45,209964
3162,000000	45,202105
3161,000000	45,241784
3160,000000	45,323455
3159,000000	45,432227
3158,000000	45,553850
3157,000000	45,677709
3156,000000	45,793087
3155,000000	45,889640
3154,000000	45,964554
3153,000000	46,023147
3152,000000	46,070451
3151,000000	46,107211
3150,000000	46,134031
3149,000000	46,153505
3148,000000	46,166113
3147,000000	46,170175
3146,000000	46,166491
3145,000000	46,158755
3144,000000	46,148552
3143,000000	46,134311
3142,000000	46,116089
3141,000000	46,096211
3140,000000	46,075006
3139,000000	46,050180
3138,000000	46,019260
3137,000000	45,978659
3136,000000	45,922497
3135,000000	45,850001
3134,000000	45,773141
3133,000000	45,707933
3132,000000	45,656235
3131,000000	45,602802
3130,000000	45,531972
3129,000000	45,441778
3128,000000	45,338590
3127,000000	45,225154
3126,000000	45,098022
3125,000000	44,952955
3124,000000	44,789570
3123,000000	44,610088
3122,000000	44,414797
3121,000000	44,197374
3120,000000	43,944643
3119,000000	43,645279
3118,000000	43,294773
3117,000000	42,890710
3116,000000	42,425950
3115,000000	41,886811
3114,000000	41,259000
3113,000000	40,526488
3112,000000	39,671890
3111,000000	38,688423
3110,000000	37,590080
3109,000000	36,414590
3108,000000	35,215422
3107,000000	34,061325
3106,000000	33,032275
3105,000000	32,206147
3104,000000	31,636418
3103,000000	31,342842
3102,000000	31,314409
3101,000000	31,504169
3100,000000	31,831409
3099,000000	32,193895
3098,000000	32,497001
3097,000000	32,667431
3096,000000	32,649312
3095,000000	32,392105
3094,000000	31,848794
3093,000000	30,980495
3092,000000	29,756933
3091,000000	28,173537
3090,000000	26,259306
3089,000000	24,086097
3088,000000	21,765361
3087,000000	19,441304
3086,000000	17,280543
3085,000000	15,448298
3084,000000	14,081711
3083,000000	13,270157
3082,000000	13,051953
3081,000000	13,400109
3080,000000	14,219004
3079,000000	15,355624
3078,000000	16,624921
3077,000000	17,850752
3076,000000	18,885877
3075,000000	19,637168
3074,000000	20,063800
3073,000000	20,163776
3072,000000	19,945641
3071,000000	19,419717
3070,000000	18,601064
3069,000000	17,513866
3068,000000	16,200454
3067,000000	14,722519
3066,000000	13,167173
3065,000000	11,634249
3064,000000	10,221852
3063,000000	9,017822
3062,000000	8,098300
3061,000000	7,522400
3060,000000	7,324793
3059,000000	7,521708
3058,000000	8,107639
3057,000000	9,052442
3056,000000	10,288362
3055,000000	11,717780
3054,000000	13,238410
3053,000000	14,759205
3052,000000	16,212345
3051,000000	17,554507
3050,000000	18,764088
3049,000000	19,823234
3048,000000	20,702256
3047,000000	21,359883
3046,000000	21,756704
3045,000000	21,868661
3044,000000	21,684404
3043,000000	21,211466
3042,000000	20,473315
3041,000000	19,500012
3040,000000	18,319690
3039,000000	16,952407
3038,000000	15,421367
3037,000000	13,754598
3036,000000	11,987772
3035,000000	10,172938
3034,000000	8,380444
3033,000000	6,691957
3032,000000	5,179513
3031,000000	3,897502
3030,000000	2,875083
3029,000000	2,114936
3028,000000	1,593991
3027,000000	1,280818
3026,000000	1,162032
3025,000000	1,247438
3024,000000	1,574022
3023,000000	2,201791
3022,000000	3,201413
3021,000000	4,628232
3020,000000	6,481827
3019,000000	8,701761
3018,000000	11,180381
3017,000000	13,785101
3016,000000	16,378941
3015,000000	18,838146
3014,000000	21,071333
3013,000000	23,013948
3012,000000	24,619883
3011,000000	25,851661
3010,000000	26,686461
3009,000000	27,115511
3008,000000	27,144141
3007,000000	26,805913
3006,000000	26,172415
3005,000000	25,358995
3004,000000	24,510061
3003,000000	23,789184
3002,000000	23,363643
3001,000000	23,377268
3000,000000	23,915264
2999,000000	24,977134
2998,000000	26,476355
2997,000000	28,253668
2996,000000	30,121167
2995,000000	31,907817
2994,000000	33,501802
2993,000000	34,851165
2992,000000	35,947139
2991,000000	36,807564
2990,000000	37,467111
2989,000000	37,965644
2988,000000	38,332444
2987,000000	38,587326
2986,000000	38,745254
2985,000000	38,818922
2984,000000	38,815541
2983,000000	38,739615
2982,000000	38,601637
2981,000000	38,416180
2980,000000	38,198290
2979,000000	37,964336
2978,000000	37,733623
2977,000000	37,522363
2976,000000	37,334516
2975,000000	37,163624
2974,000000	36,998458
2973,000000	36,821910
2972,000000	36,609888
2971,000000	36,341090
2970,000000	36,007249
2969,000000	35,610643
2968,000000	35,153595
2967,000000	34,638133
2966,000000	34,070394
2965,000000	33,456810
2964,000000	32,798110
2963,000000	32,091506
2962,000000	31,338212
2961,000000	30,540924
2960,000000	29,697431
2959,000000	28,803932
2958,000000	27,860389
2957,000000	26,867747
2956,000000	25,822033
2955,000000	24,718651
2954,000000	23,560795
2953,000000	22,355452
2952,000000	21,105892
2951,000000	19,814260
2950,000000	18,489490
2949,000000	17,146037
2948,000000	15,795955
2947,000000	14,450701
2946,000000	13,126138
2945,000000	11,839724
2944,000000	10,603384
2943,000000	9,424787
2942,000000	8,313619
2941,000000	7,278407
2940,000000	6,322025
2939,000000	5,444744
2938,000000	4,650510
2937,000000	3,943674
2936,000000	3,322183
2935,000000	2,781717
2934,000000	2,320770
2933,000000	1,937123
2932,000000	1,621979
2931,000000	1,364675
2930,000000	1,160275
2929,000000	1,004685
2928,000000	0,888322
2927,000000	0,801526
2926,000000	0,742391
2925,000000	0,712046
2924,000000	0,705428
2923,000000	0,715863
2922,000000	0,744320
2921,000000	0,795685
2920,000000	0,869584
2919,000000	0,962685
2918,000000	1,077215
2917,000000	1,218929
2916,000000	1,389272
2915,000000	1,587965
2914,000000	1,820197
2913,000000	2,093203
2912,000000	2,408565
2911,000000	2,764389
2910,000000	3,162884
2909,000000	3,608126
2908,000000	4,099535
2907,000000	4,636088
2906,000000	5,223643
2905,000000	5,871466
2904,000000	6,583555
2903,000000	7,359529
2902,000000	8,199972
2901,000000	9,101540
2900,000000	10,049918
2899,000000	11,023922
2898,000000	12,004957
2897,000000	12,976026
2896,000000	13,916917
2895,000000	14,810776
2894,000000	15,652426
2893,000000	16,444762
2892,000000	17,189203
2891,000000	17,887111
2890,000000	18,546454
2889,000000	19,178069
2888,000000	19,787756
2887,000000	20,378570
2886,000000	20,957615
2885,000000	21,532427
2884,000000	22,104369
2883,000000	22,672437
2882,000000	23,240224
2881,000000	23,811748
2880,000000	24,383400
2879,000000	24,946758
2878,000000	25,495359
2877,000000	26,021618
2876,000000	26,510741
2875,000000	26,946380
2874,000000	27,317605
2873,000000	27,614084
2872,000000	27,819051
2871,000000	27,914071
2870,000000	27,888190
2869,000000	27,734054
2868,000000	27,441086
2867,000000	27,001495
2866,000000	26,419062
2865,000000	25,704887
2864,000000	24,869302
2863,000000	23,926070
2862,000000	22,899307
2861,000000	21,818176
2860,000000	20,706680
2859,000000	19,587676
2858,000000	18,491508
2857,000000	17,449534
2856,000000	16,485055
2855,000000	15,616327
2854,000000	14,865346
2853,000000	14,255368
2852,000000	13,801503
2851,000000	13,516444
2850,000000	13,420605
2849,000000	13,538588
2848,000000	13,891702
2847,000000	14,499670
2846,000000	15,387698
2845,000000	16,579512
2844,000000	18,081564
2843,000000	19,878135
2842,000000	21,934298
2841,000000	24,190540
2840,000000	26,561536
2839,000000	28,950484
2838,000000	31,266999
2837,000000	33,436838
2836,000000	35,401892
2835,000000	37,127891
2834,000000	38,611173
2833,000000	39,866224
2832,000000	40,912041
2831,000000	41,772553
2830,000000	42,479980
2829,000000	43,066410
2828,000000	43,553528
2827,000000	43,956418
2826,000000	44,294017
2825,000000	44,584206
2824,000000	44,834183
2823,000000	45,046566
2822,000000	45,228854
2821,000000	45,390132
2820,000000	45,531966
2819,000000	45,652477
2818,000000	45,755851
2817,000000	45,847989
2816,000000	45,928197
2815,000000	45,994260
2814,000000	46,051620
2813,000000	46,108571
2812,000000	46,166439
2811,000000	46,223675
2810,000000	46,284958
2809,000000	46,356438
2808,000000	46,436510
2807,000000	46,520651
2806,000000	46,610810
2805,000000	46,710687
2804,000000	46,816097
2803,000000	46,919691
2802,000000	47,021179
2801,000000	47,123430
2800,000000	47,223143
2799,000000	47,315239
2798,000000	47,401930
2797,000000	47,487817
2796,000000	47,570168
2795,000000	47,643671
2794,000000	47,710313
2793,000000	47,774690
2792,000000	47,834006
2791,000000	47,882815
2790,000000	47,923379
2789,000000	47,961180
2788,000000	47,994224
2787,000000	48,016734
2786,000000	48,029759
2785,000000	48,038467
2784,000000	48,042982
2783,000000	48,041824
2782,000000	48,040453
2781,000000	48,046571
2780,000000	48,060959
2779,000000	48,082069
2778,000000	48,114888
2777,000000	48,165244
2776,000000	48,229293
2775,000000	48,298573
2774,000000	48,371291
2773,000000	48,448866
2772,000000	48,526091
2771,000000	48,595490
2770,000000	48,657471
2769,000000	48,716131
2768,000000	48,769069
2767,000000	48,811448
2766,000000	48,846296
2765,000000	48,880364
2764,000000	48,913290
2763,000000	48,940822
2762,000000	48,965010
2761,000000	48,991131
2760,000000	49,018155
2759,000000	49,041865
2758,000000	49,063910
2757,000000	49,088387
2756,000000	49,113352
2755,000000	49,135253
2754,000000	49,157356
2753,000000	49,184340
2752,000000	49,212830
2751,000000	49,236959
2750,000000	49,258846
2749,000000	49,283691
2748,000000	49,308995
2747,000000	49,328810
2746,000000	49,344408
2745,000000	49,360647
2744,000000	49,375735
2743,000000	49,384771
2742,000000	49,389430
2741,000000	49,394200
2740,000000	49,397186
2739,000000	49,394154
2738,000000	49,387594
2737,000000	49,382216
2736,000000	49,375838
2735,000000	49,364514
2734,000000	49,352121
2733,000000	49,345152
2732,000000	49,342526
2731,000000	49,340039
2730,000000	49,339843
2729,000000	49,345679
2728,000000	49,353806
2727,000000	49,358890
2726,000000	49,364206
2725,000000	49,375637
2724,000000	49,390609
2723,000000	49,403231
2722,000000	49,415435
2721,000000	49,432614
2720,000000	49,452923
2719,000000	49,471490
2718,000000	49,490361
2717,000000	49,513819
2716,000000	49,538690
2715,000000	49,559886
2714,000000	49,580475
2713,000000	49,605711
2712,000000	49,631947
2711,000000	49,652474
2710,000000	49,669344
2709,000000	49,688413
2708,000000	49,707489
2707,000000	49,720661
2706,000000	49,729703
2705,000000	49,740007
2704,000000	49,749745
2703,000000	49,754045
2702,000000	49,755613
2701,000000	49,759804
2700,000000	49,763664
2699,000000	49,760932
2698,000000	49,753748
2697,000000	49,748500
2696,000000	49,744328
2695,000000	49,736618
2694,000000	49,727645
2693,000000	49,722537
2692,000000	49,719029
2691,000000	49,712051
2690,000000	49,704378
2689,000000	49,701693
2688,000000	49,701416
2687,000000	49,697395
2686,000000	49,691533
2685,000000	49,689844
2684,000000	49,690894
2683,000000	49,689045
2682,000000	49,685112
2681,000000	49,683310
2680,000000	49,681781
2679,000000	49,676411
2678,000000	49,669590
2677,000000	49,664997
2676,000000	49,658567
2675,000000	49,645101
2674,000000	49,629091
2673,000000	49,618413
2672,000000	49,612323
2671,000000	49,606245
2670,000000	49,603072
2669,000000	49,608039
2668,000000	49,617507
2667,000000	49,624168
2666,000000	49,628761
2665,000000	49,635623
2664,000000	49,641462
2663,000000	49,640002
2662,000000	49,633330
2661,000000	49,627523
2660,000000	49,621411
2659,000000	49,610749
2658,000000	49,598576
2657,000000	49,590406
2656,000000	49,583821
2655,000000	49,573818
2654,000000	49,563533
2653,000000	49,558786
2652,000000	49,556964
2651,000000	49,552442
2650,000000	49,547933
2649,000000	49,549039
2648,000000	49,552866
2647,000000	49,553495
2646,000000	49,553601
2645,000000	49,558851
2644,000000	49,565681
2643,000000	49,565851
2642,000000	49,558266
2641,000000	49,544852
2640,000000	49,519686
2639,000000	49,474918
2638,000000	49,413052
2637,000000	49,342221
2636,000000	49,264637
2635,000000	49,181404
2634,000000	49,104336
2633,000000	49,051181
2632,000000	49,032684
2631,000000	49,052900
2630,000000	49,116043
2629,000000	49,220349
2628,000000	49,349472
2627,000000	49,483647
2626,000000	49,614295
2625,000000	49,739869
2624,000000	49,854393
2623,000000	49,951851
2622,000000	50,036328
2621,000000	50,114611
2620,000000	50,183828
2619,000000	50,237675
2618,000000	50,279021
2617,000000	50,313253
2616,000000	50,336019
2615,000000	50,339794
2614,000000	50,326868
2613,000000	50,303769
2612,000000	50,267440
2611,000000	50,210917
2610,000000	50,137386
2609,000000	50,055590
2608,000000	49,967606
2607,000000	49,873733
2606,000000	49,784777
2605,000000	49,716031
2604,000000	49,673023
2603,000000	49,654767
2602,000000	49,665792
2601,000000	49,711096
2600,000000	49,783530
2599,000000	49,870519
2598,000000	49,967460
2597,000000	50,073630
2596,000000	50,179733
2595,000000	50,272960
2594,000000	50,350778
2593,000000	50,416416
2592,000000	50,465702
2591,000000	50,491151
2590,000000	50,494970
2589,000000	50,483525
2588,000000	50,454559
2587,000000	50,401944
2586,000000	50,329523
2585,000000	50,248439
2584,000000	50,165008
2583,000000	50,085005
2582,000000	50,024578
2581,000000	50,002229
2580,000000	50,021399
2579,000000	50,072599
2578,000000	50,147117
2577,000000	50,236989
2576,000000	50,327358
2575,000000	50,402851
2574,000000	50,460809
2573,000000	50,506223
2572,000000	50,538441
2571,000000	50,553881
2570,000000	50,557339
2569,000000	50,557092
2568,000000	50,553430
2567,000000	50,543270
2566,000000	50,530936
2565,000000	50,522767
2564,000000	50,515776
2563,000000	50,504152
2562,000000	50,491828
2561,000000	50,486230
2560,000000	50,484779
2559,000000	50,480164
2558,000000	50,473359
2557,000000	50,469223
2556,000000	50,464282
2555,000000	50,452124
2554,000000	50,435324
2553,000000	50,419732
2552,000000	50,402360
2551,000000	50,377867
2550,000000	50,351511
2549,000000	50,332591
2548,000000	50,320897
2547,000000	50,312250
2546,000000	50,311667
2545,000000	50,326579
2544,000000	50,352858
2543,000000	50,381308
2542,000000	50,412301
2541,000000	50,450572
2540,000000	50,490824
2539,000000	50,523311
2538,000000	50,548964
2537,000000	50,574771
2536,000000	50,599222
2535,000000	50,616137
2534,000000	50,628285
2533,000000	50,642782
2532,000000	50,657533
2531,000000	50,665808
2530,000000	50,669644
2529,000000	50,675418
2528,000000	50,680493
2527,000000	50,678559
2526,000000	50,673029
2525,000000	50,671557
2524,000000	50,672088
2523,000000	50,667969
2522,000000	50,662023
2521,000000	50,661496
2520,000000	50,663994
2519,000000	50,662508
2518,000000	50,659460
2517,000000	50,661428
2516,000000	50,665135
2515,000000	50,662758
2514,000000	50,656800
2513,000000	50,655182
2512,000000	50,656442
2511,000000	50,654372
2510,000000	50,652639
2509,000000	50,659950
2508,000000	50,675105
2507,000000	50,691042
2506,000000	50,709288
2505,000000	50,736015
2504,000000	50,767549
2503,000000	50,794938
2502,000000	50,818666
2501,000000	50,844752
2500,000000	50,870360
2499,000000	50,887849
2498,000000	50,899102
2497,000000	50,911598
2496,000000	50,924050
2495,000000	50,929996
2494,000000	50,932154
2493,000000	50,938862
2492,000000	50,950084
2491,000000	50,960230
2490,000000	50,970681
2489,000000	50,985790
2488,000000	51,001147
2487,000000	51,009755
2486,000000	51,015531
2485,000000	51,026998
2484,000000	51,042410
2483,000000	51,054941
2482,000000	51,067294
2481,000000	51,086714
2480,000000	51,110507
2479,000000	51,131244
2478,000000	51,151265
2477,000000	51,177405
2476,000000	51,206101
2475,000000	51,229196
2474,000000	51,249291
2473,000000	51,274148
2472,000000	51,300628
2471,000000	51,320037
2470,000000	51,334742
2469,000000	51,353430
2468,000000	51,374279
2467,000000	51,388723
2466,000000	51,398167
2465,000000	51,410408
2464,000000	51,423436
2463,000000	51,428845
2462,000000	51,428043
2461,000000	51,429171
2460,000000	51,430947
2459,000000	51,425651
2458,000000	51,415027
2457,000000	51,407303
2456,000000	51,401474
2455,000000	51,390443
2454,000000	51,376973
2453,000000	51,370701
2452,000000	51,371706
2451,000000	51,372690
2450,000000	51,374609
2449,000000	51,384296
2448,000000	51,398949
2447,000000	51,409181
2446,000000	51,415341
2445,000000	51,425277
2444,000000	51,438149
2443,000000	51,446235
2442,000000	51,451055
2441,000000	51,461480
2440,000000	51,477333
2439,000000	51,490217
2438,000000	51,499443
2437,000000	51,511804
2436,000000	51,527142
2435,000000	51,539352
2434,000000	51,550459
2433,000000	51,568213
2432,000000	51,590907
2431,000000	51,609494
2430,000000	51,623705
2429,000000	51,641406
2428,000000	51,662999
2427,000000	51,681485
2426,000000	51,696717
2425,000000	51,714817
2424,000000	51,734267
2423,000000	51,747496
2422,000000	51,755345
2421,000000	51,765417
2420,000000	51,777058
2419,000000	51,782669
2418,000000	51,782972
2417,000000	51,785794
2416,000000	51,790703
2415,000000	51,789851
2414,000000	51,783500
2413,000000	51,779626
2412,000000	51,778195
2411,000000	51,770993
2410,000000	51,757369
2409,000000	51,745043
2408,000000	51,735253
2407,000000	51,721791
2406,000000	51,705091
2405,000000	51,692410
2404,000000	51,683308
2403,000000	51,670030
2402,000000	51,653086
2401,000000	51,641397
2400,000000	51,635670
2399,000000	51,627011
2398,000000	51,613514
2397,000000	51,603054
2396,000000	51,597119
2395,000000	51,587140
2394,000000	51,569505
2393,000000	51,548536
2392,000000	51,520675
2391,000000	51,468117
2390,000000	51,373579
2389,000000	51,223279
2388,000000	50,990544
2387,000000	50,632572
2386,000000	50,102843
2385,000000	49,366195
2384,000000	48,389500
2383,000000	47,142066
2382,000000	45,621404
2381,000000	43,857861
2380,000000	41,904542
2379,000000	39,818372
2378,000000	37,662681
2377,000000	35,508637
2376,000000	33,411005
2375,000000	31,397699
2374,000000	29,483775
2373,000000	27,689883
2372,000000	26,030782
2371,000000	24,505013
2370,000000	23,107057
2369,000000	21,844868
2368,000000	20,731204
2367,000000	19,758834
2366,000000	18,916813
2365,000000	18,214018
2364,000000	17,668379
2363,000000	17,276578
2362,000000	17,013282
2361,000000	16,878012
2360,000000	16,904386
2359,000000	17,118234
2358,000000	17,522742
2357,000000	18,125642
2356,000000	18,967109
2355,000000	20,095848
2354,000000	21,564488
2353,000000	23,463668
2352,000000	25,831914
2351,000000	28,408110
2350,000000	30,490530
2349,000000	31,267556
2348,000000	30,431207
2347,000000	28,470194
2346,000000	26,286109
2345,000000	24,542442
2344,000000	23,394632
2343,000000	22,696813
2342,000000	22,300135
2341,000000	22,113923
2340,000000	22,061724
2339,000000	22,085220
2338,000000	22,181625
2337,000000	22,361546
2336,000000	22,593326
2335,000000	22,815466
2334,000000	22,991353
2333,000000	23,136564
2332,000000	23,308475
2331,000000	23,588963
2330,000000	24,045228
2329,000000	24,670633
2328,000000	25,371879
2327,000000	26,030786
2326,000000	26,580974
2325,000000	27,034641
2324,000000	27,460565
2323,000000	27,952049
2322,000000	28,584092
2321,000000	29,377800
2320,000000	30,304941
2319,000000	31,318068
2318,000000	32,355297
2317,000000	33,326647
2316,000000	34,147085
2315,000000	34,809230
2314,000000	35,396964
2313,000000	36,012384
2312,000000	36,707029
2311,000000	37,488176
2310,000000	38,349283
2309,000000	39,269494
2308,000000	40,210348
2307,000000	41,140948
2306,000000	42,048789
2305,000000	42,912619
2304,000000	43,691921
2303,000000	44,365050
2302,000000	44,952531
2301,000000	45,484927
2300,000000	45,967288
2299,000000	46,397215
2298,000000	46,789877
2297,000000	47,160962
2296,000000	47,507494
2295,000000	47,825668
2294,000000	48,131310
2293,000000	48,439009
2292,000000	48,740953
2291,000000	49,027346
2290,000000	49,307869
2289,000000	49,593483
2288,000000	49,875891
2287,000000	50,143291
2286,000000	50,395701
2285,000000	50,622928
2284,000000	50,790503
2283,000000	50,873661
2282,000000	50,887060
2281,000000	50,862683
2280,000000	50,815014
2279,000000	50,750072
2278,000000	50,685843
2277,000000	50,636865
2276,000000	50,595700
2275,000000	50,551426
2274,000000	50,512161
2273,000000	50,487665
2272,000000	50,468131
2271,000000	50,441870
2270,000000	50,417373
2269,000000	50,405788
2268,000000	50,398950
2267,000000	50,386422
2266,000000	50,377239
2265,000000	50,382514
2264,000000	50,393524
2263,000000	50,398533
2262,000000	50,404923
2261,000000	50,422854
2260,000000	50,444208
2259,000000	50,459611
2258,000000	50,478813
2257,000000	50,512711
2256,000000	50,551883
2255,000000	50,585157
2254,000000	50,621852
2253,000000	50,673534
2252,000000	50,731169
2251,000000	50,782689
2250,000000	50,835765
2249,000000	50,900512
2248,000000	50,967020
2247,000000	51,022958
2246,000000	51,076449
2245,000000	51,138330
2244,000000	51,199207
2243,000000	51,246947
2242,000000	51,290080
2241,000000	51,340098
2240,000000	51,388015
2239,000000	51,421720
2238,000000	51,449964
2237,000000	51,485279
2236,000000	51,519955
2235,000000	51,542753
2234,000000	51,562450
2233,000000	51,591126
2232,000000	51,620418
2231,000000	51,638744
2230,000000	51,655248
2229,000000	51,682902
2228,000000	51,713882
2227,000000	51,735941
2226,000000	51,756312
2225,000000	51,785491
2224,000000	51,813912
2223,000000	51,829213
2222,000000	51,840170
2221,000000	51,858791
2220,000000	51,876070
2219,000000	51,879608
2218,000000	51,878753
2217,000000	51,886617
2216,000000	51,894571
2215,000000	51,889691
2214,000000	51,881121
2213,000000	51,883306
2212,000000	51,889571
2211,000000	51,888233
2210,000000	51,888432
2209,000000	51,903742
2208,000000	51,925674
2207,000000	51,940118
2206,000000	51,953600
2205,000000	51,977565
2204,000000	52,002056
2203,000000	52,011960
2202,000000	52,014033
2201,000000	52,021868
2200,000000	52,028879
2199,000000	52,022672
2198,000000	52,010734
2197,000000	52,005455
2196,000000	51,998774
2195,000000	51,977602
2194,000000	51,949856
2193,000000	51,928970
2192,000000	51,907959
2191,000000	51,874329
2190,000000	51,836213
2189,000000	51,807230
2188,000000	51,781272
2187,000000	51,747632
2186,000000	51,716196
2185,000000	51,701383
2184,000000	51,696065
2183,000000	51,687473
2182,000000	51,682776
2181,000000	51,693518
2180,000000	51,709717
2179,000000	51,716320
2178,000000	51,719215
2177,000000	51,729696
2176,000000	51,738805
2175,000000	51,733351
2174,000000	51,721431
2173,000000	51,716038
2172,000000	51,709893
2171,000000	51,692421
2170,000000	51,674745
2169,000000	51,670839
2168,000000	51,670899
2167,000000	51,659740
2166,000000	51,644781
2165,000000	51,638800
2164,000000	51,633092
2163,000000	51,615296
2162,000000	51,596297
2161,000000	51,590933
2160,000000	51,589459
2159,000000	51,576583
2158,000000	51,561043
2157,000000	51,557693
2156,000000	51,557634
2155,000000	51,546210
2154,000000	51,532832
2153,000000	51,533595
2152,000000	51,540397
2151,000000	51,537602
2150,000000	51,532206
2149,000000	51,538098
2148,000000	51,546950
2147,000000	51,545085
2146,000000	51,542602
2145,000000	51,555095
2144,000000	51,572966
2143,000000	51,579071
2142,000000	51,580971
2141,000000	51,594301
2140,000000	51,610898
2139,000000	51,614714
2138,000000	51,614593
2137,000000	51,629332
2136,000000	51,654349
2135,000000	51,673478
2134,000000	51,689374
2133,000000	51,712703
2132,000000	51,735466
2131,000000	51,745311
2130,000000	51,751721
2129,000000	51,769231
2128,000000	51,789092
2127,000000	51,796406
2126,000000	51,799249
2125,000000	51,812408
2124,000000	51,828026
2123,000000	51,832028
2122,000000	51,832946
2121,000000	51,845383
2120,000000	51,860543
2119,000000	51,862460
2118,000000	51,857746
2117,000000	51,860778
2116,000000	51,866863
2115,000000	51,867319
2114,000000	51,873567
2113,000000	51,896758
2112,000000	51,922154
2111,000000	51,932304
2110,000000	51,937309
2109,000000	51,953290
2108,000000	51,971213
2107,000000	51,976482
2106,000000	51,978937
2105,000000	51,992775
2104,000000	52,006709
2103,000000	52,005580
2102,000000	52,000708
2101,000000	52,008326
2100,000000	52,017853
2099,000000	52,013298
2098,000000	52,004689
2097,000000	52,007462
2096,000000	52,011310
2095,000000	52,000694
2094,000000	51,983832
2093,000000	51,970725
2092,000000	51,947828
2091,000000	51,907051
2090,000000	51,874312
2089,000000	51,873099
2088,000000	51,885051
2087,000000	51,880887
2086,000000	51,866065
2085,000000	51,858478
2084,000000	51,848158
2083,000000	51,818482
2082,000000	51,782880
2081,000000	51,760201
2080,000000	51,737300
2079,000000	51,695998
2078,000000	51,652377
2077,000000	51,629122
2076,000000	51,612856
2075,000000	51,581009
2074,000000	51,545569
2073,000000	51,528288
2072,000000	51,517175
2071,000000	51,491196
2070,000000	51,460987
2069,000000	51,438880
2068,000000	51,397334
2067,000000	51,311057
2066,000000	51,218082
2065,000000	51,181331
2064,000000	51,205014
2063,000000	51,239784
2062,000000	51,257469
2061,000000	51,267951
2060,000000	51,275133
2059,000000	51,269326
2058,000000	51,257948
2057,000000	51,257636
2056,000000	51,260808
2055,000000	51,250034
2054,000000	51,234642
2053,000000	51,234341
2052,000000	51,240083
2051,000000	51,231621
2050,000000	51,217626
2049,000000	51,218186
2048,000000	51,224001
2047,000000	51,214802
2046,000000	51,198381
2045,000000	51,188941
2044,000000	51,169039
2043,000000	51,121870
2042,000000	51,080158
2041,000000	51,089809
2040,000000	51,140793
2039,000000	51,184089
2038,000000	51,203449
2037,000000	51,218305
2036,000000	51,231534
2035,000000	51,228526
2034,000000	51,218645
2033,000000	51,225116
2032,000000	51,240995
2031,000000	51,242336
2030,000000	51,235641
2029,000000	51,246065
2028,000000	51,269483
2027,000000	51,283236
2026,000000	51,291544
2025,000000	51,313789
2024,000000	51,341499
2023,000000	51,353540
2022,000000	51,354757
2021,000000	51,349714
2020,000000	51,303088
2019,000000	51,191055
2018,000000	51,075546
2017,000000	51,055919
2016,000000	51,147674
2015,000000	51,270604
2014,000000	51,355918
2013,000000	51,400226
2012,000000	51,416192
2011,000000	51,400585
2010,000000	51,366279
2009,000000	51,346923
2008,000000	51,350354
2007,000000	51,352800
2006,000000	51,347921
2005,000000	51,354140
2004,000000	51,367834
2003,000000	51,360448
2002,000000	51,329057
2001,000000	51,300056
2000,000000	51,276455
1999,000000	51,235536
1998,000000	51,182651
1997,000000	51,139672
1996,000000	51,063984
1995,000000	50,855623
1994,000000	50,493251
1993,000000	50,111069
1992,000000	49,879975
1991,000000	49,835877
1990,000000	49,873008
1989,000000	49,883163
1988,000000	49,849478
1987,000000	49,811132
1986,000000	49,788720
1985,000000	49,770576
1984,000000	49,745794
1983,000000	49,720204
1982,000000	49,701491
1981,000000	49,684286
1980,000000	49,656332
1979,000000	49,611408
1978,000000	49,549271
1977,000000	49,464766
1976,000000	49,345864
1975,000000	49,183156
1974,000000	48,973827
1973,000000	48,717121
1972,000000	48,402819
1971,000000	48,003195
1970,000000	47,486642
1969,000000	46,862380
1968,000000	46,220294
1967,000000	45,687582
1966,000000	45,315402
1965,000000	45,027639
1964,000000	44,710940
1963,000000	44,334442
1962,000000	43,948153
1961,000000	43,594045
1960,000000	43,272151
1959,000000	42,979028
1958,000000	42,718253
1957,000000	42,473563
1956,000000	42,220346
1955,000000	41,961998
1954,000000	41,710721
1953,000000	41,441541
1952,000000	41,112820
1951,000000	40,721520
1950,000000	40,291721
1949,000000	39,826657
1948,000000	39,325947
1947,000000	38,820735
1946,000000	38,330004
1945,000000	37,826507
1944,000000	37,344460
1943,000000	37,076481
1942,000000	37,229604
1941,000000	37,785383
1940,000000	38,510417
1939,000000	39,224063
1938,000000	39,933271
1937,000000	40,691557
1936,000000	41,474021
1935,000000	42,236411
1934,000000	42,986359
1933,000000	43,726952
1932,000000	44,412090
1931,000000	45,009342
1930,000000	45,538662
1929,000000	46,015079
1928,000000	46,415543
1927,000000	46,712798
1926,000000	46,874084
1925,000000	46,872044
1924,000000	46,792004
1923,000000	46,851721
1922,000000	47,137718
1921,000000	47,379128
1920,000000	47,244264
1919,000000	46,867518
1918,000000	46,797483
1917,000000	47,326743
1916,000000	48,141517
1915,000000	48,759175
1914,000000	49,047495
1913,000000	49,136607
1912,000000	49,082399
1911,000000	48,890519
1910,000000	48,706674
1909,000000	48,703571
1908,000000	48,841372
1907,000000	48,951728
1906,000000	48,983313
1905,000000	48,989635
1904,000000	48,956543
1903,000000	48,830039
1902,000000	48,653312
1901,000000	48,502216
1900,000000	48,335585
1899,000000	48,055180
1898,000000	47,655557
1897,000000	47,201279
1896,000000	46,737025
1895,000000	46,320228
1894,000000	46,013295
1893,000000	45,712922
1892,000000	45,166404
1891,000000	44,336544
1890,000000	43,591652
1889,000000	43,300913
1888,000000	43,373333
1887,000000	43,427593
1886,000000	43,296468
1885,000000	43,104404
1884,000000	42,939009
1883,000000	42,751224
1882,000000	42,540276
1881,000000	42,377035
1880,000000	42,241229
1879,000000	42,051137
1878,000000	41,834381
1877,000000	41,677271
1876,000000	41,548660
1875,000000	41,362514
1874,000000	41,134929
1873,000000	40,852864
1872,000000	40,310222
1871,000000	39,382560
1870,000000	38,425877
1869,000000	38,056239
1868,000000	38,508387
1867,000000	39,461083
1866,000000	40,493081
1865,000000	41,431600
1864,000000	42,229432
1863,000000	42,842884
1862,000000	43,336445
1861,000000	43,864443
1860,000000	44,453027
1859,000000	44,988644
1858,000000	45,452708
1857,000000	45,945204
1856,000000	46,449569
1855,000000	46,824122
1854,000000	47,067164
1853,000000	47,325977
1852,000000	47,592778
1851,000000	47,687128
1850,000000	47,589931
1849,000000	47,466106
1848,000000	47,229652
1847,000000	46,467151
1846,000000	45,097810
1845,000000	43,841909
1844,000000	43,654436
1843,000000	44,734982
1842,000000	46,336252
1841,000000	47,536526
1840,000000	47,992614
1839,000000	47,962311
1838,000000	47,825949
1837,000000	47,746296
1836,000000	47,714555
1835,000000	47,693221
1834,000000	47,561775
1833,000000	47,033871
1832,000000	45,927459
1831,000000	44,610162
1830,000000	43,853513
1829,000000	43,991733
1828,000000	44,443031
1827,000000	44,419937
1826,000000	43,917839
1825,000000	43,612080
1824,000000	43,869609
1823,000000	44,339414
1822,000000	44,561650
1821,000000	44,489701
1820,000000	44,272026
1819,000000	43,930774
1818,000000	43,499766
1817,000000	43,158753
1816,000000	42,982025
1815,000000	42,763169
1814,000000	42,287658
1813,000000	41,615852
1812,000000	40,952330
1811,000000	40,427187
1810,000000	40,108506
1809,000000	40,027283
1808,000000	40,064638
1807,000000	40,002335
1806,000000	39,767894
1805,000000	39,447918
1804,000000	39,036597
1803,000000	38,451486
1802,000000	37,856458
1801,000000	37,646214
1800,000000	37,987231
1799,000000	38,658400
1798,000000	39,416668
1797,000000	40,151146
1796,000000	40,590705
1795,000000	40,330400
1794,000000	39,474978
1793,000000	38,866396
1792,000000	39,335518
1791,000000	40,887254
1790,000000	42,835562
1789,000000	44,468937
1788,000000	45,371465
1787,000000	45,477209
1786,000000	45,163111
1785,000000	45,030437
1784,000000	45,271571
1783,000000	45,480635
1782,000000	45,320975
1781,000000	45,060046
1780,000000	45,109412
1779,000000	45,377055
1778,000000	45,477213
1777,000000	45,239578
1776,000000	44,565873
1775,000000	43,175979
1774,000000	41,151364
1773,000000	39,470045
1772,000000	39,238655
1771,000000	40,359474
1770,000000	41,649715
1769,000000	42,344385
1768,000000	42,832153
1767,000000	43,693891
1766,000000	44,627499
1765,000000	44,790426
1764,000000	43,883311
1763,000000	42,526832
1762,000000	41,651063
1761,000000	41,659252
1760,000000	42,115136
1759,000000	42,196476
1758,000000	41,604499
1757,000000	40,939846
1756,000000	40,872599
1755,000000	41,098069
1754,000000	40,595429
1753,000000	38,984725
1752,000000	37,101743
1751,000000	35,996644
1750,000000	35,872853
1749,000000	36,279522
1748,000000	36,877504
1747,000000	37,541950
1746,000000	38,046789
1745,000000	38,194520
1744,000000	38,106940
1743,000000	37,962494
1742,000000	37,622420
1741,000000	37,025903
1740,000000	36,731663
1739,000000	37,339391
1738,000000	38,258388
1737,000000	37,920251
1736,000000	35,692638
1735,000000	33,068069
1734,000000	32,281524
1733,000000	33,940866
1732,000000	36,651178
1731,000000	38,815497
1730,000000	40,103810
1729,000000	41,044051
1728,000000	41,893592
1727,000000	42,446595
1726,000000	42,592474
1725,000000	42,535363
1724,000000	42,530279
1723,000000	42,611113
1722,000000	42,495228
1721,000000	41,589757
1720,000000	39,469259
1719,000000	36,666000
1718,000000	34,643100
1717,000000	34,513790
1716,000000	35,986309
1715,000000	37,945192
1714,000000	39,759688
1713,000000	41,413664
1712,000000	42,710082
1711,000000	43,230143
1710,000000	43,043891
1709,000000	42,611154
1708,000000	41,954491
1707,000000	40,836827
1706,000000	39,777428
1705,000000	39,663107
1704,000000	39,985991
1703,000000	38,837729
1702,000000	35,582562
1701,000000	32,421060
1700,000000	31,904668
1699,000000	33,636311
1698,000000	35,006471
1697,000000	34,830849
1696,000000	34,675278
1695,000000	36,300061
1694,000000	39,259189
1693,000000	41,716069
1692,000000	42,621273
1691,000000	42,393198
1690,000000	41,920929
1689,000000	41,549530
1688,000000	40,756652
1687,000000	38,660529
1686,000000	35,276704
1685,000000	32,270828
1684,000000	31,725503
1683,000000	33,929140
1682,000000	37,034565
1681,000000	39,219308
1680,000000	40,278256
1679,000000	40,689740
1678,000000	40,237277
1677,000000	38,621955
1676,000000	36,786225
1675,000000	36,255525
1674,000000	37,196117
1673,000000	38,118459
1672,000000	37,755718
1671,000000	36,477086
1670,000000	35,602357
1669,000000	35,971456
1668,000000	37,431819
1667,000000	39,171400
1666,000000	40,200580
1665,000000	39,943316
1664,000000	38,832303
1663,000000	38,083242
1662,000000	38,516285
1661,000000	39,769448
1660,000000	40,905957
1659,000000	41,469119
1658,000000	41,461423
1657,000000	40,435420
1656,000000	37,521399
1655,000000	32,851051
1654,000000	28,543818
1653,000000	27,371676
1652,000000	30,104326
1651,000000	34,553135
1650,000000	37,505406
1649,000000	37,549753
1648,000000	35,859464
1647,000000	34,611437
1646,000000	35,077802
1645,000000	37,057460
1644,000000	39,446477
1643,000000	41,165267
1642,000000	41,815986
1641,000000	41,733258
1640,000000	41,275670
1639,000000	40,159574
1638,000000	37,925701
1637,000000	35,099282
1636,000000	33,306648
1635,000000	33,817026
1634,000000	36,217962
1633,000000	38,886907
1632,000000	40,496514
1631,000000	40,785320
1630,000000	40,209410
1629,000000	39,392449
1628,000000	38,820352
1627,000000	38,566919
1626,000000	38,209437
1625,000000	37,374644
1624,000000	36,411739
1623,000000	36,170205
1622,000000	36,957999
1621,000000	37,950279
1620,000000	37,863185
1619,000000	36,192907
1618,000000	33,749532
1617,000000	32,041644
1616,000000	32,029883
1615,000000	33,328594
1614,000000	34,596489
1613,000000	34,750935
1612,000000	33,724568
1611,000000	32,055316
1610,000000	30,038943
1609,000000	27,565010
1608,000000	24,584298
1607,000000	21,308375
1606,000000	17,957031
1605,000000	14,664353
1604,000000	11,696520
1603,000000	9,477300
1602,000000	8,276546
1601,000000	8,103494
1600,000000	8,913315
1599,000000	10,707163
1598,000000	13,293511
1597,000000	16,209079
1596,000000	19,039841
1595,000000	21,642113
1594,000000	23,998358
1593,000000	26,021643
1592,000000	27,652936
1591,000000	28,961123
1590,000000	29,992120
1589,000000	30,590089
1588,000000	30,513647
1587,000000	29,683123
1586,000000	28,247599
1585,000000	26,551963
1584,000000	25,136439
1583,000000	24,649505
1582,000000	25,502876
1581,000000	27,458050
1580,000000	29,573748
1579,000000	30,728336
1578,000000	30,527007
1577,000000	29,818464
1576,000000	30,119518
1575,000000	32,161525
1574,000000	35,003207
1573,000000	36,836686
1572,000000	36,768577
1571,000000	35,597281
1570,000000	34,846723
1569,000000	35,298293
1568,000000	36,529721
1567,000000	37,630450
1566,000000	38,107831
1565,000000	38,142336
1564,000000	37,996656
1563,000000	37,210112
1562,000000	34,758708
1561,000000	30,471348
1560,000000	26,119648
1559,000000	24,283719
1558,000000	25,801852
1557,000000	28,927570
1556,000000	31,373032
1555,000000	32,585553
1554,000000	33,457973
1553,000000	34,462019
1552,000000	35,100848
1551,000000	35,085874
1550,000000	34,925898
1549,000000	35,045030
1548,000000	35,041235
1547,000000	34,316227
1546,000000	32,937780
1545,000000	31,420240
1544,000000	29,952970
1543,000000	28,291417
1542,000000	26,352811
1541,000000	24,675180
1540,000000	24,271708
1539,000000	25,899951
1538,000000	29,155901
1537,000000	32,327726
1536,000000	33,685462
1535,000000	33,171712
1534,000000	32,401324
1533,000000	32,827869
1532,000000	34,306196
1531,000000	35,698179
1530,000000	36,258531
1529,000000	36,006381
1528,000000	35,237053
1527,000000	34,346472
1526,000000	33,786419
1525,000000	33,527192
1524,000000	32,832591
1523,000000	31,256876
1522,000000	29,677872
1521,000000	29,479140
1520,000000	30,737358
1519,000000	32,070222
1518,000000	32,484509
1517,000000	32,503449
1516,000000	33,046634
1515,000000	33,981595
1514,000000	34,461612
1513,000000	34,231446
1512,000000	33,738380
1511,000000	33,097808
1510,000000	31,693981
1509,000000	29,097843
1508,000000	26,001529
1507,000000	23,914346
1506,000000	23,912566
1505,000000	25,675333
1504,000000	27,676245
1503,000000	28,331482
1502,000000	27,032025
1501,000000	24,158459
1500,000000	20,331177
1499,000000	15,946853
1498,000000	11,393629
1497,000000	7,262961
1496,000000	4,084131
1495,000000	1,992437
1494,000000	0,845868
1493,000000	0,506993
1492,000000	0,914965
1491,000000	2,020440
1490,000000	3,822691
1489,000000	6,325842
1488,000000	9,379911
1487,000000	12,697486
1486,000000	16,060698
1485,000000	19,340212
1484,000000	22,287799
1483,000000	24,627118
1482,000000	26,403848
1481,000000	27,925952
1480,000000	29,225915
1479,000000	29,950645
1478,000000	29,952013
1477,000000	29,566051
1476,000000	29,071756
1475,000000	28,307516
1474,000000	27,260256
1473,000000	26,614845
1472,000000	27,158653
1471,000000	28,765389
1470,000000	30,450652
1469,000000	31,329296
1468,000000	31,147030
1467,000000	30,092415
1466,000000	28,619961
1465,000000	27,408568
1464,000000	26,901964
1463,000000	26,754064
1462,000000	26,036657
1461,000000	24,095498
1460,000000	20,933601
1459,000000	16,897845
1458,000000	12,437233
1457,000000	8,195675
1456,000000	4,855844
1455,000000	2,666348
1454,000000	1,376843
1453,000000	0,702742
1452,000000	0,585266
1451,000000	0,950096
1450,000000	1,566537
1449,000000	2,283986
1448,000000	3,155837
1447,000000	4,228930
1446,000000	5,427560
1445,000000	6,719611
1444,000000	8,168537
1443,000000	9,766238
1442,000000	11,399683
1441,000000	12,968818
1440,000000	14,341465
1439,000000	15,320632
1438,000000	15,993253
1437,000000	17,010308
1436,000000	19,034129
1435,000000	21,878570
1434,000000	24,594140
1433,000000	26,498466
1432,000000	27,710488
1431,000000	28,651197
1430,000000	29,531852
1429,000000	30,449017
1428,000000	31,455178
1427,000000	32,300928
1426,000000	32,592340
1425,000000	32,430802
1424,000000	32,399390
1423,000000	32,597830
1422,000000	32,290397
1421,000000	31,001520
1420,000000	29,498886
1419,000000	29,065536
1418,000000	30,015552
1417,000000	31,535807
1416,000000	32,765626
1415,000000	33,483744
1414,000000	33,803052
1413,000000	33,811586
1412,000000	33,654895
1411,000000	33,548315
1410,000000	33,535728
1409,000000	33,446737
1408,000000	33,147947
1407,000000	32,664268
1406,000000	32,121621
1405,000000	31,741533
1404,000000	31,753214
1403,000000	32,051527
1402,000000	32,109687
1401,000000	31,561542
1400,000000	30,752808
1399,000000	30,308012
1398,000000	30,266893
1397,000000	30,099736
1396,000000	29,569507
1395,000000	29,106083
1394,000000	29,160995
1393,000000	29,601056
1392,000000	29,907000
1391,000000	29,691453
1390,000000	28,872806
1389,000000	27,629334
1388,000000	26,388236
1387,000000	25,616424
1386,000000	25,401107
1385,000000	25,374858
1384,000000	25,176977
1383,000000	24,806581
1382,000000	24,429837
1381,000000	24,060665
1380,000000	23,624520
1379,000000	23,149347
1378,000000	22,681239
1377,000000	22,138876
1376,000000	21,461655
1375,000000	20,828507
1374,000000	20,528010
1373,000000	20,631965
1372,000000	20,928935
1371,000000	21,176145
1370,000000	21,306965
1369,000000	21,405403
1368,000000	21,564008
1367,000000	21,765561
1366,000000	21,870584
1365,000000	21,756151
1364,000000	21,498703
1363,000000	21,364728
1362,000000	21,562919
1361,000000	22,052903
1360,000000	22,633356
1359,000000	23,143099
1358,000000	23,527778
1357,000000	23,784156
1356,000000	23,935595
1355,000000	24,037576
1354,000000	24,134567
1353,000000	24,214128
1352,000000	24,242741
1351,000000	24,230605
1350,000000	24,228026
1349,000000	24,274079
1348,000000	24,376334
1347,000000	24,528105
1346,000000	24,720684
1345,000000	24,939256
1344,000000	25,147920
1343,000000	25,277702
1342,000000	25,263137
1341,000000	25,127257
1340,000000	25,005150
1339,000000	25,024319
1338,000000	25,165146
1337,000000	25,290080
1336,000000	25,290654
1335,000000	25,151915
1334,000000	24,892205
1333,000000	24,527679
1332,000000	24,112895
1331,000000	23,741900
1330,000000	23,479969
1329,000000	23,336595
1328,000000	23,312362
1327,000000	23,413432
1326,000000	23,609417
1325,000000	23,831612
1324,000000	24,033022
1323,000000	24,201592
1322,000000	24,311097
1321,000000	24,321141
1320,000000	24,242344
1319,000000	24,142819
1318,000000	24,063594
1317,000000	23,975039
1316,000000	23,835734
1315,000000	23,657369
1314,000000	23,490292
1313,000000	23,382218
1312,000000	23,365155
1311,000000	23,445682
1310,000000	23,591759
1309,000000	23,760680
1308,000000	23,944986
1307,000000	24,161627
1306,000000	24,402511
1305,000000	24,635046
1304,000000	24,852655
1303,000000	25,078759
1302,000000	25,317263
1301,000000	25,540032
1300,000000	25,728947
1299,000000	25,888385
1298,000000	26,014152
1297,000000	26,092743
1296,000000	26,135421
1295,000000	26,173943
1294,000000	26,218349
1293,000000	26,255924
1292,000000	26,291190
1291,000000	26,345729
1290,000000	26,418152
1289,000000	26,486558
1288,000000	26,549100
1287,000000	26,620458
1286,000000	26,687277
1285,000000	26,714019
1284,000000	26,696554
1283,000000	26,669102
1282,000000	26,655325
1281,000000	26,654244
1280,000000	26,676079
1279,000000	26,745749
1278,000000	26,864365
1277,000000	27,004645
1276,000000	27,149997
1275,000000	27,299838
1274,000000	27,437965
1273,000000	27,538691
1272,000000	27,608203
1271,000000	27,677244
1270,000000	27,748461
1269,000000	27,790932
1268,000000	27,789741
1267,000000	27,763214
1266,000000	27,724942
1265,000000	27,668867
1264,000000	27,597831
1263,000000	27,530559
1262,000000	27,475850
1261,000000	27,433042
1260,000000	27,416474
1259,000000	27,441851
1258,000000	27,487541
1257,000000	27,508632
1256,000000	27,490729
1255,000000	27,453809
1254,000000	27,405499
1253,000000	27,331100
1252,000000	27,232326
1251,000000	27,132987
1250,000000	27,040914
1249,000000	26,942253
1248,000000	26,837548
1247,000000	26,745896
1246,000000	26,670134
1245,000000	26,594937
1244,000000	26,522531
1243,000000	26,472781
1242,000000	26,444097
1241,000000	26,411813
1240,000000	26,369308
1239,000000	26,333674
1238,000000	26,306122
1237,000000	26,264801
1236,000000	26,201889
1235,000000	26,131721
1234,000000	26,056522
1233,000000	25,959827
1232,000000	25,840050
1231,000000	25,716693
1230,000000	25,596166
1229,000000	25,465160
1228,000000	25,323580
1227,000000	25,191527
1226,000000	25,078310
1225,000000	24,974757
1224,000000	24,879881
1223,000000	24,803113
1222,000000	24,736794
1221,000000	24,657921
1220,000000	24,561591
1219,000000	24,462153
1218,000000	24,359598
1217,000000	24,236099
1216,000000	24,088572
1215,000000	23,932161
1214,000000	23,769445
1213,000000	23,588422
1212,000000	23,392203
1211,000000	23,199084
1210,000000	23,008595
1209,000000	22,800091
1208,000000	22,568076
1207,000000	22,326752
1206,000000	22,077904
1205,000000	21,806209
1204,000000	21,511245
1203,000000	21,213423
1202,000000	20,924531
1201,000000	20,642942
1200,000000	20,381075
1199,000000	20,165410
1198,000000	20,002500
1197,000000	19,874608
1196,000000	19,770514
1195,000000	19,692419
1194,000000	19,630870
1193,000000	19,563528
1192,000000	19,484023
1191,000000	19,400733
1190,000000	19,302728
1189,000000	19,153872
1188,000000	18,926344
1187,000000	18,609454
1186,000000	18,190999
1185,000000	17,667676
1184,000000	17,087855
1183,000000	16,557242
1182,000000	16,194728
1181,000000	16,093556
1180,000000	16,306266
1179,000000	16,822501
1178,000000	17,538803
1177,000000	18,295244
1176,000000	18,961434
1175,000000	19,481318
1174,000000	19,850099
1173,000000	20,082426
1172,000000	20,210568
1171,000000	20,275519
1170,000000	20,301692
1169,000000	20,288918
1168,000000	20,240005
1167,000000	20,167732
1166,000000	20,072369
1165,000000	19,938730
1164,000000	19,754220
1163,000000	19,511784
1162,000000	19,187871
1161,000000	18,743235
1160,000000	18,159876
1159,000000	17,458939
1158,000000	16,692822
1157,000000	15,944091
1156,000000	15,334334
1155,000000	14,992015
1154,000000	14,995616
1153,000000	15,341369
1152,000000	15,955024
1151,000000	16,715932
1150,000000	17,475543
1149,000000	18,111363
1148,000000	18,579906
1147,000000	18,910229
1146,000000	19,147253
1145,000000	19,319839
1144,000000	19,451296
1143,000000	19,564129
1142,000000	19,664270
1141,000000	19,739895
1140,000000	19,788020
1139,000000	19,817985
1138,000000	19,830334
1137,000000	19,816251
1136,000000	19,779092
1135,000000	19,735029
1134,000000	19,688183
1133,000000	19,627719
1132,000000	19,552461
1131,000000	19,474185
1130,000000	19,395809
1129,000000	19,308064
1128,000000	19,210307
1127,000000	19,112552
1126,000000	19,013643
1125,000000	18,900255
1124,000000	18,768951
1123,000000	18,627504
1122,000000	18,473854
1121,000000	18,295120
1120,000000	18,090351
1119,000000	17,872780
1118,000000	17,648485
1117,000000	17,416134
1116,000000	17,188057
1115,000000	16,988483
1114,000000	16,827320
1113,000000	16,697420
1112,000000	16,596947
1111,000000	16,532809
1110,000000	16,499172
1109,000000	16,475293
1108,000000	16,449828
1107,000000	16,424907
1106,000000	16,396371
1105,000000	16,350735
1104,000000	16,285187
1103,000000	16,209217
1102,000000	16,124709
1101,000000	16,024033
1100,000000	15,909442
1099,000000	15,793989
1098,000000	15,680326
1097,000000	15,559991
1096,000000	15,434053
1095,000000	15,314384
1094,000000	15,202534
1093,000000	15,087753
1092,000000	14,967109
1091,000000	14,847406
1090,000000	14,725312
1089,000000	14,586847
1088,000000	14,427072
1087,000000	14,251428
1086,000000	14,056704
1085,000000	13,830947
1084,000000	13,575748
1083,000000	13,307243
1082,000000	13,035809
1081,000000	12,763133
1080,000000	12,497630
1079,000000	12,249605
1078,000000	12,007052
1077,000000	11,738841
1076,000000	11,427816
1075,000000	11,085327
1074,000000	10,733672
1073,000000	10,395810
1072,000000	10,102748
1071,000000	9,887152
1070,000000	9,765817
1069,000000	9,738562
1068,000000	9,807632
1067,000000	9,978041
1066,000000	10,234691
1065,000000	10,545261
1064,000000	10,881615
1063,000000	11,227487
1062,000000	11,564588
1061,000000	11,871829
1060,000000	12,143065
1059,000000	12,385768
1058,000000	12,600031
1057,000000	12,773600
1056,000000	12,901328
1055,000000	12,989213
1054,000000	13,043050
1053,000000	13,069724
1052,000000	13,091235
1051,000000	13,138858
1050,000000	13,228968
1049,000000	13,357667
1048,000000	13,515784
1047,000000	13,691349
1046,000000	13,859623
1045,000000	13,991788
1044,000000	14,076452
1043,000000	14,118468
1042,000000	14,114062
1041,000000	14,048010
1040,000000	13,905543
1039,000000	13,668285
1038,000000	13,299952
1037,000000	12,747408
1036,000000	11,976710
1035,000000	10,994209
1034,000000	9,854348
1033,000000	8,666267
1032,000000	7,577393
1031,000000	6,715966
1030,000000	6,139614
1029,000000	5,855575
1028,000000	5,869794
1027,000000	6,194996
1026,000000	6,791961
1025,000000	7,550316
1024,000000	8,344645
1023,000000	9,088826
1022,000000	9,746866
1021,000000	10,312704
1020,000000	10,801461
1019,000000	11,237486
1018,000000	11,634589
1017,000000	11,990552
1016,000000	12,305869
1015,000000	12,592225
1014,000000	12,856077
1013,000000	13,093654
1012,000000	13,302559
1011,000000	13,486189
1010,000000	13,640163
1009,000000	13,744658
1008,000000	13,780218
1007,000000	13,737150
1006,000000	13,618279
1005,000000	13,453302
1004,000000	13,317076
1003,000000	13,307645
1002,000000	13,487436
1001,000000	13,840346
1000,000000	14,283941
999,000000	14,717428
998,000000	15,063587
997,000000	15,294306
996,000000	15,430334
995,000000	15,510764
994,000000	15,556950
993,000000	15,570543
992,000000	15,554058
991,000000	15,515772
990,000000	15,457309
989,000000	15,370098
988,000000	15,251121
987,000000	15,107098
986,000000	14,943052
985,000000	14,762600
984,000000	14,579960
983,000000	14,418248
982,000000	14,292757
981,000000	14,208917
980,000000	14,174236
979,000000	14,198389
978,000000	14,277382
977,000000	14,390915
976,000000	14,517285
975,000000	14,636223
974,000000	14,719558
973,000000	14,735872
972,000000	14,670808
971,000000	14,529890
970,000000	14,325316
969,000000	14,072426
968,000000	13,800745
967,000000	13,550765
966,000000	13,354059
965,000000	13,227791
964,000000	13,187008
963,000000	13,245504
962,000000	13,396853
961,000000	13,612055
960,000000	13,855245
959,000000	14,095470
958,000000	14,303947
957,000000	14,457606
956,000000	14,552059
955,000000	14,599268
954,000000	14,609385
953,000000	14,582963
952,000000	14,523664
951,000000	14,440080
950,000000	14,335942
949,000000	14,209086
948,000000	14,063606
947,000000	13,912771
946,000000	13,767230
945,000000	13,633284
944,000000	13,522896
943,000000	13,453016
942,000000	13,429856
941,000000	13,446595
940,000000	13,495974
939,000000	13,574096
938,000000	13,671967
937,000000	13,774711
936,000000	13,873893
935,000000	13,968629
934,000000	14,053668
933,000000	14,117822
932,000000	14,156119
931,000000	14,171522
930,000000	14,163548
929,000000	14,127414
928,000000	14,064274
927,000000	13,982369
926,000000	13,885079
925,000000	13,769012
924,000000	13,636007
923,000000	13,492620
922,000000	13,338286
921,000000	13,163690
920,000000	12,961999
919,000000	12,731868
918,000000	12,464736
917,000000	12,144625
916,000000	11,762124
915,000000	11,319088
914,000000	10,821864
913,000000	10,279532
912,000000	9,714808
911,000000	9,164258
910,000000	8,666089
909,000000	8,252962
908,000000	7,958203
907,000000	7,812087
906,000000	7,825742
905,000000	7,991776
904,000000	8,292140
903,000000	8,704808
902,000000	9,196318
901,000000	9,721611
900,000000	10,240003
899,000000	10,720711
898,000000	11,139939
897,000000	11,482056
896,000000	11,748668
895,000000	11,954261
894,000000	12,113024
893,000000	12,233712
892,000000	12,326176
891,000000	12,402937
890,000000	12,468961
889,000000	12,522552
888,000000	12,564766
887,000000	12,600327
886,000000	12,629073
885,000000	12,645271
884,000000	12,647976
883,000000	12,642804
882,000000	12,632692
881,000000	12,616300
880,000000	12,596182
879,000000	12,580054
878,000000	12,572178
877,000000	12,571320
876,000000	12,577877
875,000000	12,594873
874,000000	12,621107
873,000000	12,651187
872,000000	12,683437
871,000000	12,719650
870,000000	12,757319
869,000000	12,789707
868,000000	12,814334
867,000000	12,833620
866,000000	12,847299
865,000000	12,851824
864,000000	12,847281
863,000000	12,837341
862,000000	12,821485
861,000000	12,795639
860,000000	12,759788
859,000000	12,717652
858,000000	12,668763
857,000000	12,607668
856,000000	12,531832
855,000000	12,441982
854,000000	12,334220
853,000000	12,200105
852,000000	12,034154
851,000000	11,836979
850,000000	11,610714
849,000000	11,359250
848,000000	11,094198
847,000000	10,832933
846,000000	10,590302
845,000000	10,376055
844,000000	10,200321
843,000000	10,073303
842,000000	10,001074
841,000000	9,985298
840,000000	10,026905
839,000000	10,125064
838,000000	10,269726
837,000000	10,443254
836,000000	10,626212
835,000000	10,798910
834,000000	10,939727
833,000000	11,030549
832,000000	11,065707
831,000000	11,051738
830,000000	10,999524
829,000000	10,919647
828,000000	10,825155
827,000000	10,730531
826,000000	10,648110
825,000000	10,587954
824,000000	10,559517
823,000000	10,567523
822,000000	10,606333
821,000000	10,662324
820,000000	10,721655
819,000000	10,774156
818,000000	10,812462
817,000000	10,833472
816,000000	10,839694
815,000000	10,835634
814,000000	10,823291
813,000000	10,803788
812,000000	10,780347
811,000000	10,755857
810,000000	10,729800
809,000000	10,700850
808,000000	10,670771
807,000000	10,642146
806,000000	10,614310
805,000000	10,584872
804,000000	10,552922
803,000000	10,517682
802,000000	10,476264
801,000000	10,425939
800,000000	10,367114
799,000000	10,301172
798,000000	10,227469
797,000000	10,144716
796,000000	10,052683
795,000000	9,950747
794,000000	9,836265
793,000000	9,706643
792,000000	9,561269
791,000000	9,399838
790,000000	9,221895
789,000000	9,028310
788,000000	8,820916
787,000000	8,600187
786,000000	8,364890
785,000000	8,114275
784,000000	7,846254
783,000000	7,553968
782,000000	7,228993
781,000000	6,867407
780,000000	6,470795
779,000000	6,041843
778,000000	5,584262
777,000000	5,106828
776,000000	4,621515
775,000000	4,138144
774,000000	3,663794
773,000000	3,206648
772,000000	2,775044
771,000000	2,374463
770,000000	2,010169
769,000000	1,690767
768,000000	1,423679
767,000000	1,206817
766,000000	1,030976
765,000000	0,887509
764,000000	0,769370
763,000000	0,668796
762,000000	0,580369
761,000000	0,505954
760,000000	0,449654
759,000000	0,410757
758,000000	0,387032
757,000000	0,380427
756,000000	0,392886
755,000000	0,419624
754,000000	0,453345
753,000000	0,491302
752,000000	0,531423
751,000000	0,567857
750,000000	0,599085
749,000000	0,635950
748,000000	0,695718
747,000000	0,793925
746,000000	0,948787
745,000000	1,183195
744,000000	1,508970
743,000000	1,914700
742,000000	2,376870
741,000000	2,876600
740,000000	3,397556
739,000000	3,920371
738,000000	4,435290
737,000000	4,952289
736,000000	5,485261
735,000000	6,030114
734,000000	6,566915
733,000000	7,071686
732,000000	7,515155
731,000000	7,866060
730,000000	8,113349
729,000000	8,276365
728,000000	8,379160
727,000000	8,428921
726,000000	8,432437
725,000000	8,409865
724,000000	8,368878
723,000000	8,285966
722,000000	8,147855
721,000000	7,994912
720,000000	7,886736
719,000000	7,828295
718,000000	7,762563
717,000000	7,631545
716,000000	7,411185
715,000000	7,088163
714,000000	6,637341
713,000000	6,033155
712,000000	5,264655
711,000000	4,343245
710,000000	3,322726
709,000000	2,312165
708,000000	1,438462
707,000000	0,784101
706,000000	0,362160
705,000000	0,136085
704,000000	0,043473
703,000000	0,014881
702,000000	0,003801
701,000000	0,005254
700,000000	0,002448
699,000000	0,006276
698,000000	0,000907
697,000000	0,006684
696,000000	0,007393
695,000000	0,061586
694,000000	0,211927
693,000000	0,542356
692,000000	1,084318
691,000000	1,762068
690,000000	2,456756
689,000000	3,105296
688,000000	3,697270
687,000000	4,215853
686,000000	4,643006
685,000000	4,998227
684,000000	5,306691
683,000000	5,551149
682,000000	5,711370
681,000000	5,821945
680,000000	5,925900
679,000000	6,006298
678,000000	6,035200
677,000000	6,049683
676,000000	6,094575
675,000000	6,139766
674,000000	6,150165
673,000000	6,155254
672,000000	6,104197
671,000000	5,746122
670,000000	4,929580
669,000000	4,023140
668,000000	3,742408
667,000000	4,392919
666,000000	5,485472
665,000000	6,285154
664,000000	6,547433
663,000000	6,548249
662,000000	6,557998
661,000000	6,581958
660,000000	6,567766
659,000000	6,564367
658,000000	6,610754
657,000000	6,652974
656,000000	6,655636
655,000000	6,666787
654,000000	6,718691
653,000000	6,765946
652,000000	6,773008
651,000000	6,772282
650,000000	6,795093
649,000000	6,825403
648,000000	6,855833
647,000000	6,914033
646,000000	6,998930
645,000000	7,062223
644,000000	7,082598
643,000000	7,095557
642,000000	7,121006
641,000000	7,128484
640,000000	7,099163
639,000000	7,060610
638,000000	7,028704
637,000000	6,976307
636,000000	6,890609
635,000000	6,805248
634,000000	6,744526
633,000000	6,685408
632,000000	6,607865
631,000000	6,531772
630,000000	6,473826
629,000000	6,412376
628,000000	6,330058
627,000000	6,248739
626,000000	6,189511
625,000000	6,133625
624,000000	6,055692
623,000000	5,964642
622,000000	5,881351
621,000000	5,805866
620,000000	5,734383
619,000000	5,683987
618,000000	5,672502
617,000000	5,692896
616,000000	5,725172
615,000000	5,755409
614,000000	5,769777
613,000000	5,753980
612,000000	5,712333
611,000000	5,666058
610,000000	5,621623
609,000000	5,564636
608,000000	5,492381
607,000000	5,424062
606,000000	5,369803
605,000000	5,316385
604,000000	5,255741
603,000000	5,198568
602,000000	5,149203
601,000000	5,093068
600,000000	5,021668
599,000000	4,944864
598,000000	4,868707
597,000000	4,786079
596,000000	4,698098
595,000000	4,618867
594,000000	4,550352
593,000000	4,479224
592,000000	4,405505
591,000000	4,346878
590,000000	4,304959
589,000000	4,257107
588,000000	4,190969
587,000000	4,120825
586,000000	4,058270
585,000000	3,993879
584,000000	3,919070
583,000000	3,840603
582,000000	3,762558
581,000000	3,677308
580,000000	3,583789
579,000000	3,491069
578,000000	3,397801
577,000000	3,292347
576,000000	3,179961
575,000000	3,081441
574,000000	2,999034
573,000000	2,911065
572,000000	2,808990
571,000000	2,710189
570,000000	2,625380
569,000000	2,543637
568,000000	2,459416
567,000000	2,385625
566,000000	2,326140
565,000000	2,264597
564,000000	2,192854
563,000000	2,124807
562,000000	2,068481
561,000000	2,011562
560,000000	1,946997
559,000000	1,887125
558,000000	1,838417
557,000000	1,787713
556,000000	1,727671
555,000000	1,670560
554,000000	1,623443
553,000000	1,573111
552,000000	1,510780
551,000000	1,447213
550,000000	1,390062
549,000000	1,328555
548,000000	1,255928
547,000000	1,184195
546,000000	1,122540
545,000000	1,062506
544,000000	0,998639
543,000000	0,942877
542,000000	0,904424
541,000000	0,876921
540,000000	0,857601
539,000000	0,860115
538,000000	0,893049
537,000000	0,947524
536,000000	1,017919
535,000000	1,113177
534,000000	1,235050
533,000000	1,365944
532,000000	1,493072
531,000000	1,623406
530,000000	1,759983
529,000000	1,885044
528,000000	1,984730
527,000000	2,071163
526,000000	2,162968
525,000000	2,258757
524,000000	2,345110
523,000000	2,415614
522,000000	2,467871
521,000000	2,496738
520,000000	2,505887
519,000000	2,512467
518,000000	2,528727
517,000000	2,551311
516,000000	2,575172
515,000000	2,602588
514,000000	2,629713
513,000000	2,644157
512,000000	2,645205
511,000000	2,647755
510,000000	2,655940
509,000000	2,655011
508,000000	2,639957
507,000000	2,629069
506,000000	2,632535
505,000000	2,630680
504,000000	2,604280
503,000000	2,567217
502,000000	2,547832
501,000000	2,549697
500,000000	2,553145
499,000000	2,544853
498,000000	2,526481
497,000000	2,501567
496,000000	2,470831
495,000000	2,437136
494,000000	2,402754
493,000000	2,365898
492,000000	2,327883
491,000000	2,295983
490,000000	2,271774
489,000000	2,245722
488,000000	2,210187
487,000000	2,169007
486,000000	2,127821
485,000000	2,086543
484,000000	2,047395
483,000000	2,017994
482,000000	1,998334
481,000000	1,976512
480,000000	1,944986
479,000000	1,910249
478,000000	1,879854
477,000000	1,850336
476,000000	1,814822
475,000000	1,772360
474,000000	1,725887
473,000000	1,681894
472,000000	1,653249
471,000000	1,647829
470,000000	1,652426
469,000000	1,644170
468,000000	1,621810
467,000000	1,605874
466,000000	1,604237
465,000000	1,599920
464,000000	1,581284
463,000000	1,561832
462,000000	1,554239
461,000000	1,545106
460,000000	1,514846
459,000000	1,471344
458,000000	1,444738
457,000000	1,452832
456,000000	1,484566
455,000000	1,514056
454,000000	1,523801
453,000000	1,517037
452,000000	1,511222
451,000000	1,516868
450,000000	1,524335
449,000000	1,519030
448,000000	1,504071
447,000000	1,493770
446,000000	1,489030
445,000000	1,477362
444,000000	1,457739
443,000000	1,445078
442,000000	1,446696
441,000000	1,452272
440,000000	1,450903
439,000000	1,441731
438,000000	1,424875
437,000000	1,400227
436,000000	1,377746
435,000000	1,369865
434,000000	1,370357
433,000000	1,360168
432,000000	1,336435
431,000000	1,315431
430,000000	1,303510
429,000000	1,288279
428,000000	1,262713
427,000000	1,234403
426,000000	1,206162
425,000000	1,171311
424,000000	1,133305
423,000000	1,102562
422,000000	1,068091
421,000000	1,004340
420,000000	0,919803
419,000000	0,865458
418,000000	0,874238
417,000000	0,917684
416,000000	0,944374
415,000000	0,938510
414,000000	0,917114
413,000000	0,891585
412,000000	0,860615
411,000000	0,827828
410,000000	0,800142
409,000000	0,774393
408,000000	0,744251
407,000000	0,713717
406,000000	0,689440
405,000000	0,667934
404,000000	0,642980
403,000000	0,615679
402,000000	0,585608
401,000000	0,544589
400,000000	0,492332
399,000000	0,446133
398,000000	0,421136
397,000000	0,411669
396,000000	0,404455
395,000000	0,397980
394,000000	0,395829
393,000000	0,392775
392,000000	0,382090
391,000000	0,367127
390,000000	0,353305
389,000000	0,337408
388,000000	0,315614
387,000000	0,292832
386,000000	0,274284
385,000000	0,257746
384,000000	0,242382
383,000000	0,233638
382,000000	0,231224
381,000000	0,224714
380,000000	0,209187
379,000000	0,192171
378,000000	0,177562
377,000000	0,158511
376,000000	0,134894
375,000000	0,120790
374,000000	0,122943
373,000000	0,128136
372,000000	0,123283
371,000000	0,113538
370,000000	0,107898
369,000000	0,102820
368,000000	0,093067
367,000000	0,084524
366,000000	0,082306
365,000000	0,079593
364,000000	0,070948
363,000000	0,063408
362,000000	0,062399
361,000000	0,060447
360,000000	0,051295
359,000000	0,042178
358,000000	0,039823
357,000000	0,038166
356,000000	0,031301
355,000000	0,025808
354,000000	0,026931
353,000000	0,026855
352,000000	0,019552
351,000000	0,013502
350,000000	0,015396
349,000000	0,017585
348,000000	0,013542
347,000000	0,010747
346,000000	0,012896
345,000000	0,014010
344,000000	0,010305
343,000000	0,007643
342,000000	0,009399
341,000000	0,010591
340,000000	0,007012
339,000000	0,006146
338,000000	0,008875
337,000000	0,010815
336,000000	0,006245
335,000000	0,004516
334,000000	0,005708
333,000000	0,006880
332,000000	0,003282
331,000000	0,002436
330,000000	0,004248
329,000000	0,005757
328,000000	0,002582
327,000000	0,003661
326,000000	0,005544
325,000000	0,009471
324,000000	0,006488
323,000000	0,003535
322,000000	0,005130
321,000000	0,006466
320,000000	0,004794
319,000000	0,007054
318,000000	0,006702
317,000000	0,005087
316,000000	0,005348
315,000000	0,019049
314,000000	0,042277
313,000000	0,059823
312,000000	0,056257
311,000000	0,033815
310,000000	0,009273
309,000000	0,001236
308,000000	0,002165
307,000000	0,003648
306,000000	0,002392
305,000000	0,004750
304,000000	0,004977
303,000000	0,006406
302,000000	0,003360
301,000000	0,005565
300,000000	0,002557
299,000000	0,001198
298,000000	0,002408
297,000000	0,003678
296,000000	0,001941
295,000000	0,005460
294,000000	0,001268
293,000000	0,004465
292,000000	0,001255
291,000000	0,001933
290,000000	0,003892
289,000000	0,007116
288,000000	0,003955
287,000000	0,004852
286,000000	0,004176
285,000000	0,006803
284,000000	0,005354
283,000000	0,004734
282,000000	0,007636
281,000000	0,010513
280,000000	0,007027
279,000000	0,003716
278,000000	0,004841
277,000000	0,007316
276,000000	0,002904
275,000000	0,000234
274,000000	0,003631
273,000000	0,007512
272,000000	0,004841
271,000000	0,002761
270,000000	0,005159
269,000000	0,007977
268,000000	0,004590
267,000000	0,002701
266,000000	0,002656
265,000000	0,004002
264,000000	0,002694
263,000000	0,004654
262,000000	0,003948
261,000000	0,005211
260,000000	0,004356
259,000000	0,004305
258,000000	0,004078
257,000000	0,007547
256,000000	0,004408
255,000000	0,001641
254,000000	0,004903
253,000000	0,006963
252,000000	0,003713
251,000000	0,004196
250,000000	0,004036
249,000000	0,006377
248,000000	0,004844
247,000000	0,003487
246,000000	0,000967
245,000000	0,004726
244,000000	0,001339
243,000000	0,001788
242,000000	0,002262
241,000000	0,005441
240,000000	0,001710
239,000000	0,003862
238,000000	0,003260
237,000000	0,004506
236,000000	0,003753
235,000000	0,004391
234,000000	0,003548
233,000000	0,005208
232,000000	0,004157
231,000000	0,004928
230,000000	0,003473
229,000000	0,005000
228,000000	0,002529
227,000000	0,002983
226,000000	0,001017
225,000000	0,004287
224,000000	0,002087
223,000000	0,002220
222,000000	0,004740
221,000000	0,007300
220,000000	0,003626
219,000000	0,003928
218,000000	0,004587
217,000000	0,006281
216,000000	0,005284
215,000000	0,004385
214,000000	0,003698
213,000000	0,004850
212,000000	0,001505
211,000000	0,003764
210,000000	0,001352
209,000000	0,003774
208,000000	0,001755
207,000000	0,000319
206,000000	0,002562
205,000000	0,004526
204,000000	0,001213
203,000000	0,002745
202,000000	0,002791
201,000000	0,006072
200,000000	0,003813
