PE IR       SUBTECH     SPECTRUM    ASCII       PEDS        4.00        
   -1
Si transmission try 2.ASC
25/04/22
10:08:20.00
25/04/22
10:08:20.00
Praktikum
Sample 020 By Praktikum date Dienstag, April 22 2025
200,000000
#HDR
-1
-1
#GR
cm-1
EGY
1.0
0.0
4000,000000
-1,000000
3801
8
0,133283
0,000178
#DATA
4000,000000	0,097636
3999,000000	0,100308
3998,000000	0,101974
3997,000000	0,101810
3996,000000	0,100637
3995,000000	0,099727
3994,000000	0,099658
3993,000000	0,100177
3992,000000	0,100791
3991,000000	0,101146
3990,000000	0,101030
3989,000000	0,100463
3988,000000	0,099760
3987,000000	0,099363
3986,000000	0,099529
3985,000000	0,100059
3984,000000	0,100356
3983,000000	0,099894
3982,000000	0,098693
3981,000000	0,097488
3980,000000	0,097310
3979,000000	0,098510
3978,000000	0,100278
3977,000000	0,101360
3976,000000	0,101195
3975,000000	0,100258
3974,000000	0,099330
3973,000000	0,098640
3972,000000	0,098033
3971,000000	0,097587
3970,000000	0,097553
3969,000000	0,097897
3968,000000	0,098220
3967,000000	0,098171
3966,000000	0,097761
3965,000000	0,097174
3964,000000	0,096573
3963,000000	0,096306
3962,000000	0,096918
3961,000000	0,098629
3960,000000	0,100717
3959,000000	0,101914
3958,000000	0,101675
3957,000000	0,100743
3956,000000	0,100297
3955,000000	0,100647
3954,000000	0,101006
3953,000000	0,100530
3952,000000	0,099243
3951,000000	0,097879
3950,000000	0,097074
3949,000000	0,096989
3948,000000	0,097570
3947,000000	0,098609
3946,000000	0,099496
3945,000000	0,099416
3944,000000	0,098106
3943,000000	0,096324
3942,000000	0,095302
3941,000000	0,095634
3940,000000	0,096773
3939,000000	0,097731
3938,000000	0,098059
3937,000000	0,097975
3936,000000	0,097869
3935,000000	0,097953
3934,000000	0,098180
3933,000000	0,098481
3932,000000	0,098921
3931,000000	0,099573
3930,000000	0,100454
3929,000000	0,101446
3928,000000	0,102193
3927,000000	0,102270
3926,000000	0,101601
3925,000000	0,100582
3924,000000	0,099674
3923,000000	0,099063
3922,000000	0,098743
3921,000000	0,098707
3920,000000	0,099004
3919,000000	0,099442
3918,000000	0,099523
3917,000000	0,098935
3916,000000	0,097838
3915,000000	0,096914
3914,000000	0,096865
3913,000000	0,097796
3912,000000	0,099295
3911,000000	0,100635
3910,000000	0,101032
3909,000000	0,100153
3908,000000	0,098268
3907,000000	0,095838
3906,000000	0,093060
3905,000000	0,089988
3904,000000	0,087103
3903,000000	0,085410
3902,000000	0,085656
3901,000000	0,087589
3900,000000	0,090275
3899,000000	0,092936
3898,000000	0,095297
3897,000000	0,097213
3896,000000	0,098397
3895,000000	0,098577
3894,000000	0,097629
3893,000000	0,095673
3892,000000	0,093482
3891,000000	0,092566
3890,000000	0,093987
3889,000000	0,096752
3888,000000	0,098146
3887,000000	0,096509
3886,000000	0,093243
3885,000000	0,091310
3884,000000	0,091938
3883,000000	0,093590
3882,000000	0,094148
3881,000000	0,093405
3880,000000	0,093054
3879,000000	0,094647
3878,000000	0,097764
3877,000000	0,100179
3876,000000	0,099895
3875,000000	0,097221
3874,000000	0,094467
3873,000000	0,093069
3872,000000	0,091894
3871,000000	0,089323
3870,000000	0,086276
3869,000000	0,085668
3868,000000	0,088471
3867,000000	0,091887
3866,000000	0,092626
3865,000000	0,090733
3864,000000	0,089042
3863,000000	0,089646
3862,000000	0,092225
3861,000000	0,095417
3860,000000	0,098211
3859,000000	0,099707
3858,000000	0,098828
3857,000000	0,094933
3856,000000	0,088338
3855,000000	0,080632
3854,000000	0,074674
3853,000000	0,073468
3852,000000	0,077970
3851,000000	0,085606
3850,000000	0,092035
3849,000000	0,095000
3848,000000	0,095753
3847,000000	0,096496
3846,000000	0,097633
3845,000000	0,098052
3844,000000	0,097236
3843,000000	0,095835
3842,000000	0,094372
3841,000000	0,092448
3840,000000	0,089531
3839,000000	0,086062
3838,000000	0,083444
3837,000000	0,082949
3836,000000	0,084760
3835,000000	0,087906
3834,000000	0,091125
3833,000000	0,093780
3832,000000	0,095991
3831,000000	0,098009
3830,000000	0,099678
3829,000000	0,100603
3828,000000	0,100662
3827,000000	0,100295
3826,000000	0,100127
3825,000000	0,100030
3824,000000	0,098680
3823,000000	0,094708
3822,000000	0,088848
3821,000000	0,084447
3820,000000	0,084677
3819,000000	0,088955
3818,000000	0,093353
3817,000000	0,094722
3816,000000	0,093631
3815,000000	0,093171
3814,000000	0,095261
3813,000000	0,099105
3812,000000	0,102730
3811,000000	0,104764
3810,000000	0,104673
3809,000000	0,102419
3808,000000	0,098854
3807,000000	0,095965
3806,000000	0,095531
3805,000000	0,097077
3804,000000	0,097659
3803,000000	0,094880
3802,000000	0,090116
3801,000000	0,087706
3800,000000	0,090343
3799,000000	0,096018
3798,000000	0,100309
3797,000000	0,101150
3796,000000	0,100342
3795,000000	0,100539
3794,000000	0,102297
3793,000000	0,104249
3792,000000	0,105202
3791,000000	0,105177
3790,000000	0,104911
3789,000000	0,105173
3788,000000	0,106202
3787,000000	0,107283
3786,000000	0,107270
3785,000000	0,105900
3784,000000	0,104197
3783,000000	0,103073
3782,000000	0,101990
3781,000000	0,099837
3780,000000	0,096963
3779,000000	0,095458
3778,000000	0,097008
3777,000000	0,100919
3776,000000	0,104634
3775,000000	0,106121
3774,000000	0,105331
3773,000000	0,103405
3772,000000	0,101268
3771,000000	0,099400
3770,000000	0,098522
3769,000000	0,099465
3768,000000	0,101870
3767,000000	0,104039
3766,000000	0,104638
3765,000000	0,104031
3764,000000	0,103342
3763,000000	0,102629
3762,000000	0,100998
3761,000000	0,098314
3760,000000	0,095705
3759,000000	0,094424
3758,000000	0,094880
3757,000000	0,096624
3756,000000	0,098339
3755,000000	0,097992
3754,000000	0,094272
3753,000000	0,088149
3752,000000	0,082249
3751,000000	0,078659
3750,000000	0,078042
3749,000000	0,080316
3748,000000	0,084353
3747,000000	0,087145
3746,000000	0,085645
3745,000000	0,080755
3744,000000	0,077562
3743,000000	0,080191
3742,000000	0,087308
3741,000000	0,094074
3740,000000	0,097175
3739,000000	0,096366
3738,000000	0,092672
3737,000000	0,087500
3736,000000	0,083221
3735,000000	0,082044
3734,000000	0,083700
3733,000000	0,085948
3732,000000	0,087676
3731,000000	0,089848
3730,000000	0,093059
3729,000000	0,095774
3728,000000	0,096171
3727,000000	0,094699
3726,000000	0,093480
3725,000000	0,093707
3724,000000	0,094703
3723,000000	0,095376
3722,000000	0,095667
3721,000000	0,096350
3720,000000	0,097818
3719,000000	0,099549
3718,000000	0,100737
3717,000000	0,101048
3716,000000	0,100407
3715,000000	0,098321
3714,000000	0,094318
3713,000000	0,089442
3712,000000	0,086347
3711,000000	0,086915
3710,000000	0,090258
3709,000000	0,093837
3708,000000	0,096230
3707,000000	0,097922
3706,000000	0,099462
3705,000000	0,100217
3704,000000	0,099350
3703,000000	0,097176
3702,000000	0,095071
3701,000000	0,094313
3700,000000	0,095186
3699,000000	0,096911
3698,000000	0,098449
3697,000000	0,099675
3696,000000	0,101311
3695,000000	0,103478
3694,000000	0,104794
3693,000000	0,103534
3692,000000	0,099420
3691,000000	0,093757
3690,000000	0,088342
3689,000000	0,085103
3688,000000	0,085944
3687,000000	0,091255
3686,000000	0,098404
3685,000000	0,103450
3684,000000	0,104881
3683,000000	0,104497
3682,000000	0,104611
3681,000000	0,105468
3680,000000	0,105653
3679,000000	0,103684
3678,000000	0,098864
3677,000000	0,091898
3676,000000	0,085749
3675,000000	0,084146
3674,000000	0,087593
3673,000000	0,091940
3672,000000	0,092425
3671,000000	0,088980
3670,000000	0,086055
3669,000000	0,087426
3668,000000	0,092622
3667,000000	0,098475
3666,000000	0,102692
3665,000000	0,105089
3664,000000	0,106278
3663,000000	0,106559
3662,000000	0,106014
3661,000000	0,104922
3660,000000	0,103623
3659,000000	0,102054
3658,000000	0,099946
3657,000000	0,097668
3656,000000	0,096403
3655,000000	0,096901
3654,000000	0,098126
3653,000000	0,097917
3652,000000	0,095161
3651,000000	0,090906
3650,000000	0,087212
3649,000000	0,085457
3648,000000	0,086137
3647,000000	0,089391
3646,000000	0,094569
3645,000000	0,099782
3644,000000	0,103054
3643,000000	0,103898
3642,000000	0,103413
3641,000000	0,102904
3640,000000	0,102782
3639,000000	0,102817
3638,000000	0,102606
3637,000000	0,101624
3636,000000	0,099727
3635,000000	0,097893
3634,000000	0,097630
3633,000000	0,098993
3632,000000	0,099589
3631,000000	0,096572
3630,000000	0,090107
3629,000000	0,084137
3628,000000	0,083112
3627,000000	0,088103
3626,000000	0,096147
3625,000000	0,103215
3624,000000	0,107128
3623,000000	0,107828
3622,000000	0,105877
3621,000000	0,101993
3620,000000	0,097722
3619,000000	0,095294
3618,000000	0,095990
3617,000000	0,098836
3616,000000	0,101515
3615,000000	0,102482
3614,000000	0,101867
3613,000000	0,100704
3612,000000	0,099680
3611,000000	0,098794
3610,000000	0,097946
3609,000000	0,097363
3608,000000	0,097489
3607,000000	0,098660
3606,000000	0,100773
3605,000000	0,103159
3604,000000	0,104834
3603,000000	0,105136
3602,000000	0,104344
3601,000000	0,103541
3600,000000	0,103562
3599,000000	0,104072
3598,000000	0,104002
3597,000000	0,102882
3596,000000	0,101304
3595,000000	0,100048
3594,000000	0,099285
3593,000000	0,098844
3592,000000	0,098698
3591,000000	0,098719
3590,000000	0,098303
3589,000000	0,097124
3588,000000	0,096151
3587,000000	0,096952
3586,000000	0,099903
3585,000000	0,103557
3584,000000	0,106134
3583,000000	0,107270
3582,000000	0,107918
3581,000000	0,108860
3580,000000	0,109727
3579,000000	0,109549
3578,000000	0,107940
3577,000000	0,105681
3576,000000	0,104029
3575,000000	0,103550
3574,000000	0,104069
3573,000000	0,105302
3572,000000	0,107053
3571,000000	0,108591
3570,000000	0,108421
3569,000000	0,105723
3568,000000	0,101729
3567,000000	0,098906
3566,000000	0,098761
3565,000000	0,100832
3564,000000	0,103627
3563,000000	0,105805
3562,000000	0,106475
3561,000000	0,105471
3560,000000	0,103755
3559,000000	0,102955
3558,000000	0,103973
3557,000000	0,106089
3556,000000	0,107846
3555,000000	0,108556
3554,000000	0,108466
3553,000000	0,107951
3552,000000	0,107146
3551,000000	0,106214
3550,000000	0,105462
3549,000000	0,104964
3548,000000	0,104363
3547,000000	0,103463
3546,000000	0,102881
3545,000000	0,103639
3544,000000	0,105974
3543,000000	0,108743
3542,000000	0,110367
3541,000000	0,110284
3540,000000	0,109190
3539,000000	0,107944
3538,000000	0,106875
3537,000000	0,106180
3536,000000	0,106206
3535,000000	0,106884
3534,000000	0,107477
3533,000000	0,107473
3532,000000	0,107287
3531,000000	0,107527
3530,000000	0,107911
3529,000000	0,107795
3528,000000	0,107358
3527,000000	0,107220
3526,000000	0,107172
3525,000000	0,106308
3524,000000	0,104608
3523,000000	0,103380
3522,000000	0,103743
3521,000000	0,105369
3520,000000	0,107112
3519,000000	0,108234
3518,000000	0,108686
3517,000000	0,108769
3516,000000	0,108917
3515,000000	0,109316
3514,000000	0,109474
3513,000000	0,108650
3512,000000	0,106993
3511,000000	0,105744
3510,000000	0,105911
3509,000000	0,107137
3508,000000	0,108175
3507,000000	0,108055
3506,000000	0,106638
3505,000000	0,104640
3504,000000	0,103260
3503,000000	0,103345
3502,000000	0,104620
3501,000000	0,106025
3500,000000	0,106913
3499,000000	0,107359
3498,000000	0,107353
3497,000000	0,106583
3496,000000	0,105304
3495,000000	0,104549
3494,000000	0,104949
3493,000000	0,105939
3492,000000	0,106542
3491,000000	0,106412
3490,000000	0,105871
3489,000000	0,105552
3488,000000	0,106221
3487,000000	0,108056
3486,000000	0,109878
3485,000000	0,110031
3484,000000	0,108408
3483,000000	0,106770
3482,000000	0,106359
3481,000000	0,106415
3480,000000	0,105820
3479,000000	0,105087
3478,000000	0,105497
3477,000000	0,107030
3476,000000	0,108488
3475,000000	0,109063
3474,000000	0,108760
3473,000000	0,107744
3472,000000	0,106590
3471,000000	0,106701
3470,000000	0,108913
3469,000000	0,111843
3468,000000	0,113026
3467,000000	0,111828
3466,000000	0,109902
3465,000000	0,108759
3464,000000	0,108253
3463,000000	0,107750
3462,000000	0,107363
3461,000000	0,107303
3460,000000	0,107147
3459,000000	0,106674
3458,000000	0,106577
3457,000000	0,107524
3456,000000	0,109080
3455,000000	0,110276
3454,000000	0,110735
3453,000000	0,110580
3452,000000	0,109780
3451,000000	0,108358
3450,000000	0,106978
3449,000000	0,106516
3448,000000	0,107044
3447,000000	0,107768
3446,000000	0,107990
3445,000000	0,107702
3444,000000	0,107248
3443,000000	0,106878
3442,000000	0,106637
3441,000000	0,106498
3440,000000	0,106613
3439,000000	0,107219
3438,000000	0,108272
3437,000000	0,109257
3436,000000	0,109524
3435,000000	0,109062
3434,000000	0,108610
3433,000000	0,108864
3432,000000	0,109818
3431,000000	0,110899
3430,000000	0,111488
3429,000000	0,111269
3428,000000	0,110381
3427,000000	0,109380
3426,000000	0,108841
3425,000000	0,108802
3424,000000	0,108695
3423,000000	0,107994
3422,000000	0,106819
3421,000000	0,105919
3420,000000	0,106099
3419,000000	0,107552
3418,000000	0,109573
3417,000000	0,110994
3416,000000	0,111348
3415,000000	0,111376
3414,000000	0,112044
3413,000000	0,113227
3412,000000	0,113806
3411,000000	0,113206
3410,000000	0,112120
3409,000000	0,111444
3408,000000	0,111166
3407,000000	0,110804
3406,000000	0,110442
3405,000000	0,110700
3404,000000	0,111721
3403,000000	0,112801
3402,000000	0,113181
3401,000000	0,112773
3400,000000	0,111954
3399,000000	0,111030
3398,000000	0,110106
3397,000000	0,109349
3396,000000	0,109064
3395,000000	0,109381
3394,000000	0,110120
3393,000000	0,111041
3392,000000	0,112101
3391,000000	0,113304
3390,000000	0,114337
3389,000000	0,114627
3388,000000	0,113916
3387,000000	0,112582
3386,000000	0,111269
3385,000000	0,110381
3384,000000	0,110093
3383,000000	0,110542
3382,000000	0,111656
3381,000000	0,112972
3380,000000	0,113996
3379,000000	0,114681
3378,000000	0,115122
3377,000000	0,115000
3376,000000	0,113868
3375,000000	0,112010
3374,000000	0,110639
3373,000000	0,110783
3372,000000	0,112175
3371,000000	0,113601
3370,000000	0,113996
3369,000000	0,113247
3368,000000	0,112197
3367,000000	0,111969
3366,000000	0,113089
3365,000000	0,114933
3364,000000	0,116140
3363,000000	0,115914
3362,000000	0,114686
3361,000000	0,113366
3360,000000	0,112349
3359,000000	0,111526
3358,000000	0,111056
3357,000000	0,111502
3356,000000	0,112947
3355,000000	0,114379
3354,000000	0,114412
3353,000000	0,112756
3352,000000	0,110748
3351,000000	0,110179
3350,000000	0,111559
3349,000000	0,113717
3348,000000	0,115217
3347,000000	0,115702
3346,000000	0,115640
3345,000000	0,115316
3344,000000	0,114709
3343,000000	0,114164
3342,000000	0,114280
3341,000000	0,114961
3340,000000	0,115295
3339,000000	0,114714
3338,000000	0,113726
3337,000000	0,113134
3336,000000	0,112995
3335,000000	0,112871
3334,000000	0,112731
3333,000000	0,112945
3332,000000	0,113561
3331,000000	0,114104
3330,000000	0,114088
3329,000000	0,113426
3328,000000	0,112359
3327,000000	0,111340
3326,000000	0,110980
3325,000000	0,111651
3324,000000	0,113093
3323,000000	0,114637
3322,000000	0,115816
3321,000000	0,116568
3320,000000	0,116882
3319,000000	0,116633
3318,000000	0,115893
3317,000000	0,115080
3316,000000	0,114584
3315,000000	0,114474
3314,000000	0,114720
3313,000000	0,115409
3312,000000	0,116549
3311,000000	0,117860
3310,000000	0,118882
3309,000000	0,119337
3308,000000	0,119237
3307,000000	0,118743
3306,000000	0,118148
3305,000000	0,117744
3304,000000	0,117519
3303,000000	0,116997
3302,000000	0,115695
3301,000000	0,113842
3300,000000	0,112432
3299,000000	0,112373
3298,000000	0,113611
3297,000000	0,115215
3296,000000	0,116259
3295,000000	0,116465
3294,000000	0,116187
3293,000000	0,116060
3292,000000	0,116489
3291,000000	0,117192
3290,000000	0,117265
3289,000000	0,116164
3288,000000	0,114689
3287,000000	0,114367
3286,000000	0,115598
3285,000000	0,116988
3284,000000	0,117057
3283,000000	0,116093
3282,000000	0,115560
3281,000000	0,115989
3280,000000	0,116497
3279,000000	0,116462
3278,000000	0,116447
3277,000000	0,116935
3276,000000	0,117221
3275,000000	0,116462
3274,000000	0,115244
3273,000000	0,115004
3272,000000	0,116104
3271,000000	0,117505
3270,000000	0,118321
3269,000000	0,118732
3268,000000	0,119194
3267,000000	0,119560
3266,000000	0,119429
3265,000000	0,118775
3264,000000	0,117835
3263,000000	0,116764
3262,000000	0,115797
3261,000000	0,115343
3260,000000	0,115470
3259,000000	0,115640
3258,000000	0,115356
3257,000000	0,114849
3256,000000	0,114720
3255,000000	0,115117
3254,000000	0,115686
3253,000000	0,116193
3252,000000	0,116683
3251,000000	0,117029
3250,000000	0,116887
3249,000000	0,116253
3248,000000	0,115660
3247,000000	0,115640
3246,000000	0,116162
3245,000000	0,116789
3244,000000	0,117232
3243,000000	0,117527
3242,000000	0,117815
3241,000000	0,118211
3240,000000	0,118690
3239,000000	0,118963
3238,000000	0,118629
3237,000000	0,117571
3236,000000	0,116299
3235,000000	0,115634
3234,000000	0,115897
3233,000000	0,116569
3232,000000	0,116797
3231,000000	0,116310
3230,000000	0,115762
3229,000000	0,116040
3228,000000	0,117286
3227,000000	0,118734
3226,000000	0,119495
3225,000000	0,119350
3224,000000	0,118728
3223,000000	0,118168
3222,000000	0,117925
3221,000000	0,117976
3220,000000	0,118126
3219,000000	0,118079
3218,000000	0,117606
3217,000000	0,116747
3216,000000	0,115853
3215,000000	0,115421
3214,000000	0,115743
3213,000000	0,116574
3212,000000	0,117170
3211,000000	0,116937
3210,000000	0,116294
3209,000000	0,116472
3208,000000	0,118152
3207,000000	0,120407
3206,000000	0,121505
3205,000000	0,120799
3204,000000	0,119307
3203,000000	0,118367
3202,000000	0,118157
3201,000000	0,118021
3200,000000	0,117780
3199,000000	0,117952
3198,000000	0,118657
3197,000000	0,119072
3196,000000	0,118487
3195,000000	0,117474
3194,000000	0,117281
3193,000000	0,118192
3192,000000	0,119077
3191,000000	0,118875
3190,000000	0,117924
3189,000000	0,117413
3188,000000	0,117832
3187,000000	0,118594
3186,000000	0,119039
3185,000000	0,119226
3184,000000	0,119539
3183,000000	0,120108
3182,000000	0,120889
3181,000000	0,121774
3180,000000	0,122289
3179,000000	0,121653
3178,000000	0,119796
3177,000000	0,118012
3176,000000	0,117880
3175,000000	0,119524
3174,000000	0,121512
3173,000000	0,122377
3172,000000	0,121707
3171,000000	0,119884
3170,000000	0,117595
3169,000000	0,115864
3168,000000	0,115723
3167,000000	0,117311
3166,000000	0,119562
3165,000000	0,121126
3164,000000	0,121379
3163,000000	0,120493
3162,000000	0,119014
3161,000000	0,117687
3160,000000	0,117200
3159,000000	0,117582
3158,000000	0,118198
3157,000000	0,118637
3156,000000	0,119250
3155,000000	0,120425
3154,000000	0,121699
3153,000000	0,122269
3152,000000	0,122132
3151,000000	0,122004
3150,000000	0,122274
3149,000000	0,122604
3148,000000	0,122533
3147,000000	0,121885
3146,000000	0,120619
3145,000000	0,119009
3144,000000	0,118018
3143,000000	0,118623
3142,000000	0,120420
3141,000000	0,121631
3140,000000	0,121011
3139,000000	0,119303
3138,000000	0,118397
3137,000000	0,119316
3136,000000	0,121412
3135,000000	0,123179
3134,000000	0,123530
3133,000000	0,122526
3132,000000	0,121259
3131,000000	0,120887
3130,000000	0,121492
3129,000000	0,122044
3128,000000	0,121641
3127,000000	0,120526
3126,000000	0,119606
3125,000000	0,119287
3124,000000	0,119249
3123,000000	0,119165
3122,000000	0,119135
3121,000000	0,119374
3120,000000	0,119827
3119,000000	0,120178
3118,000000	0,120143
3117,000000	0,119759
3116,000000	0,119422
3115,000000	0,119511
3114,000000	0,119893
3113,000000	0,120102
3112,000000	0,120160
3111,000000	0,120684
3110,000000	0,121903
3109,000000	0,123081
3108,000000	0,123358
3107,000000	0,122871
3106,000000	0,122263
3105,000000	0,121483
3104,000000	0,120026
3103,000000	0,118193
3102,000000	0,117163
3101,000000	0,117482
3100,000000	0,118363
3099,000000	0,118881
3098,000000	0,119079
3097,000000	0,119417
3096,000000	0,119898
3095,000000	0,120398
3094,000000	0,121202
3093,000000	0,122339
3092,000000	0,122944
3091,000000	0,122236
3090,000000	0,120872
3089,000000	0,120320
3088,000000	0,120962
3087,000000	0,121798
3086,000000	0,122013
3085,000000	0,121816
3084,000000	0,121534
3083,000000	0,120967
3082,000000	0,120182
3081,000000	0,120020
3080,000000	0,121001
3079,000000	0,122407
3078,000000	0,123196
3077,000000	0,123324
3076,000000	0,123400
3075,000000	0,123471
3074,000000	0,123163
3073,000000	0,122669
3072,000000	0,122526
3071,000000	0,122585
3070,000000	0,122168
3069,000000	0,121364
3068,000000	0,121133
3067,000000	0,121898
3066,000000	0,122968
3065,000000	0,123665
3064,000000	0,124106
3063,000000	0,124406
3062,000000	0,124035
3061,000000	0,122790
3060,000000	0,121648
3059,000000	0,121660
3058,000000	0,122422
3057,000000	0,122623
3056,000000	0,121876
3055,000000	0,121088
3054,000000	0,121064
3053,000000	0,121603
3052,000000	0,122199
3051,000000	0,122836
3050,000000	0,123678
3049,000000	0,124419
3048,000000	0,124433
3047,000000	0,123514
3046,000000	0,122232
3045,000000	0,121569
3044,000000	0,122130
3043,000000	0,123514
3042,000000	0,124560
3041,000000	0,124438
3040,000000	0,123408
3039,000000	0,122321
3038,000000	0,121686
3037,000000	0,121525
3036,000000	0,121761
3035,000000	0,122199
3034,000000	0,122300
3033,000000	0,121675
3032,000000	0,120843
3031,000000	0,120815
3030,000000	0,121868
3029,000000	0,123323
3028,000000	0,124564
3027,000000	0,125554
3026,000000	0,126168
3025,000000	0,125888
3024,000000	0,124655
3023,000000	0,123315
3022,000000	0,122605
3021,000000	0,122256
3020,000000	0,121683
3019,000000	0,121075
3018,000000	0,121005
3017,000000	0,121329
3016,000000	0,121347
3015,000000	0,120907
3014,000000	0,120590
3013,000000	0,120792
3012,000000	0,121342
3011,000000	0,122047
3010,000000	0,122926
3009,000000	0,123754
3008,000000	0,124009
3007,000000	0,123538
3006,000000	0,122852
3005,000000	0,122514
3004,000000	0,122636
3003,000000	0,123169
3002,000000	0,124086
3001,000000	0,124967
3000,000000	0,124886
2999,000000	0,123384
2998,000000	0,121349
2997,000000	0,120274
2996,000000	0,120510
2995,000000	0,120901
2994,000000	0,120302
2993,000000	0,118988
2992,000000	0,118230
2991,000000	0,118730
2990,000000	0,119984
2989,000000	0,121019
2988,000000	0,121391
2987,000000	0,121357
2986,000000	0,121355
2985,000000	0,121623
2984,000000	0,122101
2983,000000	0,122477
2982,000000	0,122460
2981,000000	0,122197
2980,000000	0,122281
2979,000000	0,123075
2978,000000	0,124128
2977,000000	0,124589
2976,000000	0,124156
2975,000000	0,123334
2974,000000	0,122761
2973,000000	0,122551
2972,000000	0,122467
2971,000000	0,122431
2970,000000	0,122480
2969,000000	0,122380
2968,000000	0,121695
2967,000000	0,120326
2966,000000	0,118779
2965,000000	0,117830
2964,000000	0,118006
2963,000000	0,119264
2962,000000	0,120987
2961,000000	0,122363
2960,000000	0,122912
2959,000000	0,122660
2958,000000	0,121935
2957,000000	0,121189
2956,000000	0,120958
2955,000000	0,121486
2954,000000	0,122218
2953,000000	0,122098
2952,000000	0,120719
2951,000000	0,118880
2950,000000	0,117681
2949,000000	0,117377
2948,000000	0,117484
2947,000000	0,117691
2946,000000	0,118070
2945,000000	0,118498
2944,000000	0,118544
2943,000000	0,118128
2942,000000	0,117725
2941,000000	0,117680
2940,000000	0,117788
2939,000000	0,117810
2938,000000	0,117933
2937,000000	0,118265
2936,000000	0,118328
2935,000000	0,117622
2934,000000	0,116474
2933,000000	0,115698
2932,000000	0,115408
2931,000000	0,114918
2930,000000	0,113893
2929,000000	0,112940
2928,000000	0,112696
2927,000000	0,112817
2926,000000	0,112498
2925,000000	0,111768
2924,000000	0,111668
2923,000000	0,113040
2922,000000	0,115533
2921,000000	0,118026
2920,000000	0,119747
2919,000000	0,120635
2918,000000	0,120848
2917,000000	0,120363
2916,000000	0,119205
2915,000000	0,117778
2914,000000	0,116717
2913,000000	0,116409
2912,000000	0,116797
2911,000000	0,117585
2910,000000	0,118484
2909,000000	0,119246
2908,000000	0,119584
2907,000000	0,119316
2906,000000	0,118679
2905,000000	0,118363
2904,000000	0,118995
2903,000000	0,120540
2902,000000	0,122322
2901,000000	0,123650
2900,000000	0,124285
2899,000000	0,124312
2898,000000	0,123890
2897,000000	0,123276
2896,000000	0,122844
2895,000000	0,122748
2894,000000	0,122564
2893,000000	0,121741
2892,000000	0,120557
2891,000000	0,120108
2890,000000	0,120943
2889,000000	0,121995
2888,000000	0,121637
2887,000000	0,119668
2886,000000	0,117673
2885,000000	0,117252
2884,000000	0,118424
2883,000000	0,119975
2882,000000	0,120934
2881,000000	0,121294
2880,000000	0,121577
2879,000000	0,122211
2878,000000	0,123270
2877,000000	0,124425
2876,000000	0,125080
2875,000000	0,124895
2874,000000	0,124202
2873,000000	0,123561
2872,000000	0,122898
2871,000000	0,121602
2870,000000	0,119717
2869,000000	0,118413
2868,000000	0,118670
2867,000000	0,119804
2866,000000	0,120162
2865,000000	0,119256
2864,000000	0,118412
2863,000000	0,118979
2862,000000	0,120540
2861,000000	0,121544
2860,000000	0,121233
2859,000000	0,120211
2858,000000	0,119265
2857,000000	0,118502
2856,000000	0,117831
2855,000000	0,117579
2854,000000	0,118172
2853,000000	0,119495
2852,000000	0,120920
2851,000000	0,121893
2850,000000	0,122298
2849,000000	0,122365
2848,000000	0,122406
2847,000000	0,122594
2846,000000	0,122787
2845,000000	0,122657
2844,000000	0,122107
2843,000000	0,121497
2842,000000	0,121298
2841,000000	0,121624
2840,000000	0,122264
2839,000000	0,123046
2838,000000	0,123939
2837,000000	0,124779
2836,000000	0,125130
2835,000000	0,124594
2834,000000	0,123274
2833,000000	0,121971
2832,000000	0,121716
2831,000000	0,122828
2830,000000	0,124378
2829,000000	0,124902
2828,000000	0,123946
2827,000000	0,122651
2826,000000	0,122505
2825,000000	0,123652
2824,000000	0,124855
2823,000000	0,125056
2822,000000	0,124425
2821,000000	0,123732
2820,000000	0,123301
2819,000000	0,123152
2818,000000	0,123707
2817,000000	0,125443
2816,000000	0,127730
2815,000000	0,128896
2814,000000	0,127982
2813,000000	0,126010
2812,000000	0,124942
2811,000000	0,125635
2810,000000	0,127235
2809,000000	0,128376
2808,000000	0,128340
2807,000000	0,127209
2806,000000	0,125631
2805,000000	0,124561
2804,000000	0,124581
2803,000000	0,125199
2802,000000	0,125302
2801,000000	0,124555
2800,000000	0,123843
2799,000000	0,124027
2798,000000	0,124818
2797,000000	0,125337
2796,000000	0,125362
2795,000000	0,125376
2794,000000	0,125645
2793,000000	0,125903
2792,000000	0,125894
2791,000000	0,125678
2790,000000	0,125360
2789,000000	0,124960
2788,000000	0,124640
2787,000000	0,124707
2786,000000	0,125251
2785,000000	0,126075
2784,000000	0,126951
2783,000000	0,127689
2782,000000	0,128074
2781,000000	0,128049
2780,000000	0,127867
2779,000000	0,127724
2778,000000	0,127482
2777,000000	0,127031
2776,000000	0,126632
2775,000000	0,126456
2774,000000	0,126128
2773,000000	0,125321
2772,000000	0,124483
2771,000000	0,124254
2770,000000	0,124321
2769,000000	0,123766
2768,000000	0,122698
2767,000000	0,122472
2766,000000	0,123791
2765,000000	0,125442
2764,000000	0,125698
2763,000000	0,124411
2762,000000	0,122992
2761,000000	0,122683
2760,000000	0,123543
2759,000000	0,124951
2758,000000	0,126342
2757,000000	0,127322
2756,000000	0,127587
2755,000000	0,127068
2754,000000	0,126054
2753,000000	0,125148
2752,000000	0,124990
2751,000000	0,125728
2750,000000	0,126697
2749,000000	0,127039
2748,000000	0,126789
2747,000000	0,126892
2746,000000	0,127937
2745,000000	0,129325
2744,000000	0,130097
2743,000000	0,130067
2742,000000	0,129679
2741,000000	0,129175
2740,000000	0,128531
2739,000000	0,127799
2738,000000	0,126902
2737,000000	0,125447
2736,000000	0,123525
2735,000000	0,122318
2734,000000	0,123026
2733,000000	0,125232
2732,000000	0,127193
2731,000000	0,127868
2730,000000	0,127806
2729,000000	0,127814
2728,000000	0,127691
2727,000000	0,126951
2726,000000	0,126045
2725,000000	0,126110
2724,000000	0,127589
2723,000000	0,129589
2722,000000	0,130602
2721,000000	0,129761
2720,000000	0,127530
2719,000000	0,125354
2718,000000	0,124606
2717,000000	0,125513
2716,000000	0,127093
2715,000000	0,128267
2714,000000	0,128753
2713,000000	0,128858
2712,000000	0,128840
2711,000000	0,128792
2710,000000	0,128804
2709,000000	0,128912
2708,000000	0,129004
2707,000000	0,129022
2706,000000	0,129141
2705,000000	0,129393
2704,000000	0,129257
2703,000000	0,128102
2702,000000	0,126179
2701,000000	0,124786
2700,000000	0,125099
2699,000000	0,126891
2698,000000	0,128642
2697,000000	0,129015
2696,000000	0,128055
2695,000000	0,126866
2694,000000	0,126338
2693,000000	0,126473
2692,000000	0,126886
2691,000000	0,127469
2690,000000	0,128280
2689,000000	0,129033
2688,000000	0,129172
2687,000000	0,128515
2686,000000	0,127556
2685,000000	0,127036
2684,000000	0,127338
2683,000000	0,128262
2682,000000	0,129192
2681,000000	0,129491
2680,000000	0,129012
2679,000000	0,128284
2678,000000	0,127925
2677,000000	0,127864
2676,000000	0,127487
2675,000000	0,126607
2674,000000	0,125844
2673,000000	0,125809
2672,000000	0,126299
2671,000000	0,126694
2670,000000	0,126881
2669,000000	0,127287
2668,000000	0,128138
2667,000000	0,129165
2666,000000	0,130055
2665,000000	0,130735
2664,000000	0,131045
2663,000000	0,130592
2662,000000	0,129314
2661,000000	0,127945
2660,000000	0,127415
2659,000000	0,127812
2658,000000	0,128389
2657,000000	0,128622
2656,000000	0,128755
2655,000000	0,129060
2654,000000	0,129105
2653,000000	0,128281
2652,000000	0,126840
2651,000000	0,125854
2650,000000	0,126031
2649,000000	0,127043
2648,000000	0,128157
2647,000000	0,129018
2646,000000	0,129447
2645,000000	0,129065
2644,000000	0,127870
2643,000000	0,126854
2642,000000	0,127170
2641,000000	0,128587
2640,000000	0,129573
2639,000000	0,129152
2638,000000	0,128027
2637,000000	0,127457
2636,000000	0,127667
2635,000000	0,128003
2634,000000	0,128089
2633,000000	0,128028
2632,000000	0,127786
2631,000000	0,127264
2630,000000	0,126910
2629,000000	0,127383
2628,000000	0,128392
2627,000000	0,128730
2626,000000	0,127876
2625,000000	0,126800
2624,000000	0,126644
2623,000000	0,127244
2622,000000	0,127675
2621,000000	0,127717
2620,000000	0,127935
2619,000000	0,128583
2618,000000	0,129299
2617,000000	0,129844
2616,000000	0,130260
2615,000000	0,130227
2614,000000	0,129198
2613,000000	0,127532
2612,000000	0,126667
2611,000000	0,127522
2610,000000	0,129268
2609,000000	0,130341
2608,000000	0,130303
2607,000000	0,130067
2606,000000	0,130530
2605,000000	0,131598
2604,000000	0,132516
2603,000000	0,132640
2602,000000	0,131872
2601,000000	0,130706
2600,000000	0,129800
2599,000000	0,129249
2598,000000	0,128526
2597,000000	0,127416
2596,000000	0,126650
2595,000000	0,127022
2594,000000	0,128176
2593,000000	0,128943
2592,000000	0,128771
2591,000000	0,128198
2590,000000	0,127849
2589,000000	0,127719
2588,000000	0,127657
2587,000000	0,127804
2586,000000	0,128224
2585,000000	0,128634
2584,000000	0,128858
2583,000000	0,129188
2582,000000	0,129936
2581,000000	0,130884
2580,000000	0,131529
2579,000000	0,131710
2578,000000	0,131591
2577,000000	0,131283
2576,000000	0,130834
2575,000000	0,130361
2574,000000	0,129991
2573,000000	0,129838
2572,000000	0,130062
2571,000000	0,130633
2570,000000	0,131022
2569,000000	0,130583
2568,000000	0,129404
2567,000000	0,128370
2566,000000	0,128065
2565,000000	0,128117
2564,000000	0,127986
2563,000000	0,127868
2562,000000	0,128258
2561,000000	0,129047
2560,000000	0,129738
2559,000000	0,130271
2558,000000	0,130836
2557,000000	0,131071
2556,000000	0,130392
2555,000000	0,129137
2554,000000	0,128413
2553,000000	0,128529
2552,000000	0,128481
2551,000000	0,127515
2550,000000	0,126465
2549,000000	0,126711
2548,000000	0,128306
2547,000000	0,129951
2546,000000	0,130654
2545,000000	0,130498
2544,000000	0,129923
2543,000000	0,129081
2542,000000	0,128198
2541,000000	0,127908
2540,000000	0,128704
2539,000000	0,130262
2538,000000	0,131652
2537,000000	0,132172
2536,000000	0,131662
2535,000000	0,130269
2534,000000	0,128363
2533,000000	0,126627
2532,000000	0,125745
2531,000000	0,125827
2530,000000	0,126396
2529,000000	0,126976
2528,000000	0,127470
2527,000000	0,127875
2526,000000	0,128045
2525,000000	0,127978
2524,000000	0,127975
2523,000000	0,128168
2522,000000	0,128214
2521,000000	0,127789
2520,000000	0,127184
2519,000000	0,127049
2518,000000	0,127609
2517,000000	0,128429
2516,000000	0,128953
2515,000000	0,129030
2514,000000	0,128893
2513,000000	0,128810
2512,000000	0,128825
2511,000000	0,128813
2510,000000	0,128788
2509,000000	0,129084
2508,000000	0,129987
2507,000000	0,131185
2506,000000	0,132046
2505,000000	0,132476
2504,000000	0,132882
2503,000000	0,133283
2502,000000	0,133124
2501,000000	0,132166
2500,000000	0,130939
2499,000000	0,129957
2498,000000	0,129120
2497,000000	0,128411
2496,000000	0,128430
2495,000000	0,129442
2494,000000	0,130536
2493,000000	0,130713
2492,000000	0,130301
2491,000000	0,130172
2490,000000	0,130088
2489,000000	0,129245
2488,000000	0,128131
2487,000000	0,128223
2486,000000	0,129707
2485,000000	0,131044
2484,000000	0,131215
2483,000000	0,131005
2482,000000	0,131335
2481,000000	0,131636
2480,000000	0,130897
2479,000000	0,129335
2478,000000	0,128005
2477,000000	0,127517
2476,000000	0,127968
2475,000000	0,129414
2474,000000	0,131403
2473,000000	0,132779
2472,000000	0,132955
2471,000000	0,132738
2470,000000	0,132882
2469,000000	0,132681
2468,000000	0,131134
2467,000000	0,128826
2466,000000	0,127392
2465,000000	0,127496
2464,000000	0,128488
2463,000000	0,129722
2462,000000	0,131031
2461,000000	0,131995
2460,000000	0,131992
2459,000000	0,131233
2458,000000	0,130764
2457,000000	0,131082
2456,000000	0,131634
2455,000000	0,131923
2454,000000	0,132065
2453,000000	0,132037
2452,000000	0,131413
2451,000000	0,130298
2450,000000	0,129587
2449,000000	0,129736
2448,000000	0,130018
2447,000000	0,129590
2446,000000	0,128725
2445,000000	0,128406
2444,000000	0,129086
2443,000000	0,130318
2442,000000	0,131354
2441,000000	0,131715
2440,000000	0,131425
2439,000000	0,130916
2438,000000	0,130518
2437,000000	0,130033
2436,000000	0,129133
2435,000000	0,128132
2434,000000	0,127831
2433,000000	0,128426
2432,000000	0,129163
2431,000000	0,129368
2430,000000	0,129248
2429,000000	0,129328
2428,000000	0,129625
2427,000000	0,129848
2426,000000	0,129998
2425,000000	0,130306
2424,000000	0,130775
2423,000000	0,131178
2422,000000	0,131353
2421,000000	0,131251
2420,000000	0,130863
2419,000000	0,130235
2418,000000	0,129442
2417,000000	0,128486
2416,000000	0,127467
2415,000000	0,126827
2414,000000	0,127041
2413,000000	0,127942
2412,000000	0,128747
2411,000000	0,128910
2410,000000	0,128707
2409,000000	0,128776
2408,000000	0,129345
2407,000000	0,130168
2406,000000	0,130944
2405,000000	0,131442
2404,000000	0,131373
2403,000000	0,130524
2402,000000	0,129044
2401,000000	0,127501
2400,000000	0,126669
2399,000000	0,127073
2398,000000	0,128427
2397,000000	0,129672
2396,000000	0,130005
2395,000000	0,129810
2394,000000	0,130045
2393,000000	0,130718
2392,000000	0,130685
2391,000000	0,129306
2390,000000	0,127565
2389,000000	0,126927
2388,000000	0,127470
2387,000000	0,127847
2386,000000	0,126940
2385,000000	0,124825
2384,000000	0,122040
2383,000000	0,118621
2382,000000	0,114299
2381,000000	0,109316
2380,000000	0,104553
2379,000000	0,100574
2378,000000	0,096877
2377,000000	0,092417
2376,000000	0,086838
2375,000000	0,080947
2374,000000	0,075787
2373,000000	0,071468
2372,000000	0,067325
2371,000000	0,063041
2370,000000	0,058984
2369,000000	0,055424
2368,000000	0,052147
2367,000000	0,049024
2366,000000	0,046429
2365,000000	0,044661
2364,000000	0,043348
2363,000000	0,042038
2362,000000	0,040936
2361,000000	0,040434
2360,000000	0,040326
2359,000000	0,040260
2358,000000	0,040629
2357,000000	0,042186
2356,000000	0,044905
2355,000000	0,047990
2354,000000	0,051189
2353,000000	0,055627
2352,000000	0,062583
2351,000000	0,071391
2350,000000	0,079143
2349,000000	0,082769
2348,000000	0,081152
2347,000000	0,075507
2346,000000	0,068194
2345,000000	0,061447
2344,000000	0,056789
2343,000000	0,054744
2342,000000	0,054751
2341,000000	0,055572
2340,000000	0,056223
2339,000000	0,056473
2338,000000	0,056479
2337,000000	0,056283
2336,000000	0,056003
2335,000000	0,056081
2334,000000	0,056824
2333,000000	0,057899
2332,000000	0,058729
2331,000000	0,059321
2330,000000	0,060199
2329,000000	0,061604
2328,000000	0,063327
2327,000000	0,065213
2326,000000	0,067206
2325,000000	0,068876
2324,000000	0,069663
2323,000000	0,069871
2322,000000	0,070706
2321,000000	0,072859
2320,000000	0,075668
2319,000000	0,078185
2318,000000	0,080533
2317,000000	0,083446
2316,000000	0,086842
2315,000000	0,089666
2314,000000	0,091136
2313,000000	0,091542
2312,000000	0,091780
2311,000000	0,092660
2310,000000	0,094816
2309,000000	0,098468
2308,000000	0,102835
2307,000000	0,106324
2306,000000	0,107864
2305,000000	0,107940
2304,000000	0,108023
2303,000000	0,109036
2302,000000	0,110654
2301,000000	0,112101
2300,000000	0,113046
2299,000000	0,113659
2298,000000	0,114278
2297,000000	0,115283
2296,000000	0,116967
2295,000000	0,119216
2294,000000	0,121452
2293,000000	0,123135
2292,000000	0,124240
2291,000000	0,125012
2290,000000	0,125410
2289,000000	0,125269
2288,000000	0,124906
2287,000000	0,124994
2286,000000	0,125640
2285,000000	0,126102
2284,000000	0,125810
2283,000000	0,125197
2282,000000	0,125072
2281,000000	0,125538
2280,000000	0,126029
2279,000000	0,126209
2278,000000	0,126312
2277,000000	0,126685
2276,000000	0,127386
2275,000000	0,128171
2274,000000	0,128548
2273,000000	0,128009
2272,000000	0,126656
2271,000000	0,125347
2270,000000	0,124725
2269,000000	0,124467
2268,000000	0,124064
2267,000000	0,123899
2266,000000	0,124736
2265,000000	0,126273
2264,000000	0,127210
2263,000000	0,126956
2262,000000	0,126374
2261,000000	0,126413
2260,000000	0,126893
2259,000000	0,127102
2258,000000	0,126826
2257,000000	0,126297
2256,000000	0,125687
2255,000000	0,125165
2254,000000	0,125145
2253,000000	0,125915
2252,000000	0,127104
2251,000000	0,127933
2250,000000	0,127979
2249,000000	0,127488
2248,000000	0,126985
2247,000000	0,126819
2246,000000	0,126964
2245,000000	0,127118
2244,000000	0,127053
2243,000000	0,126959
2242,000000	0,127333
2241,000000	0,128490
2240,000000	0,130181
2239,000000	0,131592
2238,000000	0,131753
2237,000000	0,130246
2236,000000	0,127873
2235,000000	0,126351
2234,000000	0,126681
2233,000000	0,127976
2232,000000	0,128601
2231,000000	0,128076
2230,000000	0,127138
2229,000000	0,126355
2228,000000	0,125665
2227,000000	0,125343
2226,000000	0,126160
2225,000000	0,128062
2224,000000	0,129758
2223,000000	0,130272
2222,000000	0,130120
2221,000000	0,130421
2220,000000	0,131294
2219,000000	0,131713
2218,000000	0,130883
2217,000000	0,129044
2216,000000	0,126998
2215,000000	0,125512
2214,000000	0,125010
2213,000000	0,125326
2212,000000	0,125894
2211,000000	0,126301
2210,000000	0,126468
2209,000000	0,126285
2208,000000	0,125630
2207,000000	0,124870
2206,000000	0,124697
2205,000000	0,125150
2204,000000	0,125446
2203,000000	0,125121
2202,000000	0,124731
2201,000000	0,125042
2200,000000	0,126057
2199,000000	0,127302
2198,000000	0,128471
2197,000000	0,129283
2196,000000	0,129317
2195,000000	0,128657
2194,000000	0,128182
2193,000000	0,128463
2192,000000	0,128893
2191,000000	0,128594
2190,000000	0,127687
2189,000000	0,126973
2188,000000	0,126818
2187,000000	0,127001
2186,000000	0,127269
2185,000000	0,127313
2184,000000	0,126635
2183,000000	0,125298
2182,000000	0,124432
2181,000000	0,125028
2180,000000	0,126467
2179,000000	0,127246
2178,000000	0,127033
2177,000000	0,126999
2176,000000	0,128076
2175,000000	0,129807
2174,000000	0,131031
2173,000000	0,130938
2172,000000	0,129512
2171,000000	0,127611
2170,000000	0,126533
2169,000000	0,126789
2168,000000	0,127412
2167,000000	0,127238
2166,000000	0,126567
2165,000000	0,126468
2164,000000	0,126843
2163,000000	0,126592
2162,000000	0,125682
2161,000000	0,125551
2160,000000	0,126835
2159,000000	0,128121
2158,000000	0,127929
2157,000000	0,126801
2156,000000	0,126304
2155,000000	0,126696
2154,000000	0,126840
2153,000000	0,126176
2152,000000	0,125467
2151,000000	0,125453
2150,000000	0,125929
2149,000000	0,126427
2148,000000	0,126942
2147,000000	0,127499
2146,000000	0,127705
2145,000000	0,127259
2144,000000	0,126522
2143,000000	0,126225
2142,000000	0,126589
2141,000000	0,127056
2140,000000	0,127053
2139,000000	0,126771
2138,000000	0,126856
2137,000000	0,127374
2136,000000	0,127515
2135,000000	0,126695
2134,000000	0,125606
2133,000000	0,125516
2132,000000	0,126580
2131,000000	0,127579
2130,000000	0,127522
2129,000000	0,126885
2128,000000	0,126700
2127,000000	0,126949
2126,000000	0,126692
2125,000000	0,125616
2124,000000	0,124633
2123,000000	0,124685
2122,000000	0,125565
2121,000000	0,126230
2120,000000	0,125983
2119,000000	0,125035
2118,000000	0,124076
2117,000000	0,123618
2116,000000	0,123785
2115,000000	0,124443
2114,000000	0,125342
2113,000000	0,126128
2112,000000	0,126367
2111,000000	0,125895
2110,000000	0,125161
2109,000000	0,124956
2108,000000	0,125720
2107,000000	0,127058
2106,000000	0,127949
2105,000000	0,127588
2104,000000	0,126103
2103,000000	0,124486
2102,000000	0,123858
2101,000000	0,124514
2100,000000	0,125606
2099,000000	0,125934
2098,000000	0,125126
2097,000000	0,123999
2096,000000	0,123710
2095,000000	0,124564
2094,000000	0,125766
2093,000000	0,126305
2092,000000	0,125836
2091,000000	0,124767
2090,000000	0,123741
2089,000000	0,123282
2088,000000	0,123730
2087,000000	0,124981
2086,000000	0,126251
2085,000000	0,126550
2084,000000	0,125709
2083,000000	0,124670
2082,000000	0,124401
2081,000000	0,124815
2080,000000	0,125147
2079,000000	0,125093
2078,000000	0,125050
2077,000000	0,125236
2076,000000	0,125265
2075,000000	0,124866
2074,000000	0,124432
2073,000000	0,124440
2072,000000	0,124640
2071,000000	0,124384
2070,000000	0,123641
2069,000000	0,123093
2068,000000	0,123259
2067,000000	0,123863
2066,000000	0,124166
2065,000000	0,123820
2064,000000	0,123246
2063,000000	0,123128
2062,000000	0,123588
2061,000000	0,124057
2060,000000	0,124076
2059,000000	0,123904
2058,000000	0,124029
2057,000000	0,124378
2056,000000	0,124564
2055,000000	0,124694
2054,000000	0,125211
2053,000000	0,125913
2052,000000	0,126062
2051,000000	0,125618
2050,000000	0,125511
2049,000000	0,126362
2048,000000	0,127556
2047,000000	0,128150
2046,000000	0,128083
2045,000000	0,127800
2044,000000	0,127289
2043,000000	0,126359
2042,000000	0,125376
2041,000000	0,124866
2040,000000	0,124731
2039,000000	0,124610
2038,000000	0,124731
2037,000000	0,125496
2036,000000	0,126405
2035,000000	0,126356
2034,000000	0,125133
2033,000000	0,123766
2032,000000	0,123233
2031,000000	0,123509
2030,000000	0,124151
2029,000000	0,125014
2028,000000	0,125893
2027,000000	0,126278
2026,000000	0,125927
2025,000000	0,125224
2024,000000	0,124857
2023,000000	0,125159
2022,000000	0,125865
2021,000000	0,126351
2020,000000	0,125917
2019,000000	0,124277
2018,000000	0,122125
2017,000000	0,120871
2016,000000	0,121361
2015,000000	0,122982
2014,000000	0,124358
2013,000000	0,124767
2012,000000	0,124571
2011,000000	0,124382
2010,000000	0,124234
2009,000000	0,123758
2008,000000	0,122960
2007,000000	0,122496
2006,000000	0,122988
2005,000000	0,124220
2004,000000	0,125313
2003,000000	0,125705
2002,000000	0,125596
2001,000000	0,125299
2000,000000	0,124699
1999,000000	0,123703
1998,000000	0,122811
1997,000000	0,122687
1996,000000	0,123247
1995,000000	0,123615
1994,000000	0,123115
1993,000000	0,122091
1992,000000	0,121541
1991,000000	0,121998
1990,000000	0,122873
1989,000000	0,123051
1988,000000	0,122211
1987,000000	0,121364
1986,000000	0,121696
1985,000000	0,123073
1984,000000	0,124265
1983,000000	0,124573
1982,000000	0,124475
1981,000000	0,124490
1980,000000	0,124346
1979,000000	0,123809
1978,000000	0,123514
1977,000000	0,124097
1976,000000	0,124979
1975,000000	0,124972
1974,000000	0,123864
1973,000000	0,122534
1972,000000	0,121669
1971,000000	0,121242
1970,000000	0,121166
1969,000000	0,121526
1968,000000	0,122070
1967,000000	0,122253
1966,000000	0,122009
1965,000000	0,121858
1964,000000	0,122096
1963,000000	0,122471
1962,000000	0,122812
1961,000000	0,123275
1960,000000	0,123784
1959,000000	0,123920
1958,000000	0,123646
1957,000000	0,123534
1956,000000	0,123860
1955,000000	0,124016
1954,000000	0,123399
1953,000000	0,122380
1952,000000	0,121909
1951,000000	0,122284
1950,000000	0,122769
1949,000000	0,122515
1948,000000	0,121519
1947,000000	0,120562
1946,000000	0,120240
1945,000000	0,120270
1944,000000	0,120019
1943,000000	0,119546
1942,000000	0,119686
1941,000000	0,120886
1940,000000	0,122379
1939,000000	0,123011
1938,000000	0,122578
1937,000000	0,121830
1936,000000	0,121346
1935,000000	0,121071
1934,000000	0,120913
1933,000000	0,121078
1932,000000	0,121582
1931,000000	0,122000
1930,000000	0,122049
1929,000000	0,122012
1928,000000	0,122252
1927,000000	0,122536
1926,000000	0,122228
1925,000000	0,121211
1924,000000	0,120322
1923,000000	0,120558
1922,000000	0,121810
1921,000000	0,122672
1920,000000	0,121831
1919,000000	0,119653
1918,000000	0,117945
1917,000000	0,118014
1916,000000	0,119493
1915,000000	0,121194
1914,000000	0,122489
1913,000000	0,123429
1912,000000	0,124033
1911,000000	0,124088
1910,000000	0,123512
1909,000000	0,122518
1908,000000	0,121565
1907,000000	0,121336
1906,000000	0,122180
1905,000000	0,123399
1904,000000	0,123763
1903,000000	0,123033
1902,000000	0,122332
1901,000000	0,122606
1900,000000	0,123365
1899,000000	0,123618
1898,000000	0,123278
1897,000000	0,122831
1896,000000	0,122460
1895,000000	0,122215
1894,000000	0,122291
1893,000000	0,122327
1892,000000	0,121249
1891,000000	0,118883
1890,000000	0,116985
1889,000000	0,117307
1888,000000	0,119289
1887,000000	0,120942
1886,000000	0,121443
1885,000000	0,121522
1884,000000	0,121736
1883,000000	0,121933
1882,000000	0,122184
1881,000000	0,122753
1880,000000	0,123178
1879,000000	0,122777
1878,000000	0,122048
1877,000000	0,122111
1876,000000	0,122811
1875,000000	0,123013
1874,000000	0,122484
1873,000000	0,121683
1872,000000	0,120121
1871,000000	0,116941
1870,000000	0,113301
1869,000000	0,111935
1868,000000	0,113748
1867,000000	0,116752
1866,000000	0,118980
1865,000000	0,120471
1864,000000	0,121641
1863,000000	0,121872
1862,000000	0,121045
1861,000000	0,120709
1860,000000	0,121935
1859,000000	0,123383
1858,000000	0,123235
1857,000000	0,121966
1856,000000	0,121390
1855,000000	0,121783
1854,000000	0,121771
1853,000000	0,120631
1852,000000	0,119140
1851,000000	0,118232
1850,000000	0,118059
1849,000000	0,118259
1848,000000	0,117971
1847,000000	0,115896
1846,000000	0,111719
1845,000000	0,107413
1844,000000	0,106033
1843,000000	0,108794
1842,000000	0,113833
1841,000000	0,118127
1840,000000	0,120090
1839,000000	0,120230
1838,000000	0,119896
1837,000000	0,119834
1836,000000	0,119902
1835,000000	0,119830
1834,000000	0,119606
1833,000000	0,118952
1832,000000	0,117288
1831,000000	0,114932
1830,000000	0,113532
1829,000000	0,114223
1828,000000	0,115751
1827,000000	0,115893
1826,000000	0,114631
1825,000000	0,114374
1824,000000	0,116623
1823,000000	0,119993
1822,000000	0,122270
1821,000000	0,122935
1820,000000	0,122819
1819,000000	0,122529
1818,000000	0,122257
1817,000000	0,122238
1816,000000	0,122302
1815,000000	0,121620
1814,000000	0,119894
1813,000000	0,118063
1812,000000	0,117100
1811,000000	0,116970
1810,000000	0,117381
1809,000000	0,118590
1808,000000	0,120541
1807,000000	0,122154
1806,000000	0,122407
1805,000000	0,121355
1804,000000	0,119372
1803,000000	0,116503
1802,000000	0,113320
1801,000000	0,111222
1800,000000	0,110852
1799,000000	0,111362
1798,000000	0,112178
1797,000000	0,113871
1796,000000	0,116048
1795,000000	0,116088
1794,000000	0,112292
1793,000000	0,107137
1792,000000	0,105151
1791,000000	0,107893
1790,000000	0,112807
1789,000000	0,116580
1788,000000	0,117764
1787,000000	0,116675
1786,000000	0,114781
1785,000000	0,114109
1784,000000	0,115435
1783,000000	0,117061
1782,000000	0,116847
1781,000000	0,115216
1780,000000	0,114410
1779,000000	0,115158
1778,000000	0,116070
1777,000000	0,116021
1776,000000	0,114869
1775,000000	0,111878
1774,000000	0,106240
1773,000000	0,099865
1772,000000	0,096992
1771,000000	0,099434
1770,000000	0,104243
1769,000000	0,107593
1768,000000	0,109258
1767,000000	0,111471
1766,000000	0,114619
1765,000000	0,116448
1764,000000	0,115440
1763,000000	0,113078
1762,000000	0,112072
1761,000000	0,113197
1760,000000	0,114561
1759,000000	0,113750
1758,000000	0,110717
1757,000000	0,108232
1756,000000	0,108740
1755,000000	0,111106
1754,000000	0,111635
1753,000000	0,108501
1752,000000	0,103945
1751,000000	0,101440
1750,000000	0,102018
1749,000000	0,104322
1748,000000	0,107038
1747,000000	0,109636
1746,000000	0,111338
1745,000000	0,111297
1744,000000	0,109820
1743,000000	0,107957
1742,000000	0,105879
1741,000000	0,103335
1740,000000	0,101672
1739,000000	0,103134
1738,000000	0,106811
1737,000000	0,107571
1736,000000	0,101587
1735,000000	0,092145
1734,000000	0,087091
1733,000000	0,090152
1732,000000	0,097438
1731,000000	0,103270
1730,000000	0,106517
1729,000000	0,109460
1728,000000	0,112750
1727,000000	0,114554
1726,000000	0,114014
1725,000000	0,112634
1724,000000	0,111986
1723,000000	0,111974
1722,000000	0,111519
1721,000000	0,109176
1720,000000	0,103564
1719,000000	0,095292
1718,000000	0,088317
1717,000000	0,086877
1716,000000	0,090825
1715,000000	0,096251
1714,000000	0,100809
1713,000000	0,105299
1712,000000	0,109766
1711,000000	0,111912
1710,000000	0,110919
1709,000000	0,109137
1708,000000	0,107899
1707,000000	0,105504
1706,000000	0,101805
1705,000000	0,100547
1704,000000	0,103006
1703,000000	0,103310
1702,000000	0,095861
1701,000000	0,085046
1700,000000	0,080772
1699,000000	0,084934
1698,000000	0,089401
1697,000000	0,088320
1696,000000	0,086160
1695,000000	0,090176
1694,000000	0,099908
1693,000000	0,108407
1692,000000	0,110895
1691,000000	0,108744
1690,000000	0,106114
1689,000000	0,105542
1688,000000	0,105901
1687,000000	0,103237
1686,000000	0,095192
1685,000000	0,085493
1684,000000	0,081639
1683,000000	0,086723
1682,000000	0,095858
1681,000000	0,102641
1680,000000	0,105968
1679,000000	0,107713
1678,000000	0,107077
1677,000000	0,102028
1676,000000	0,095112
1675,000000	0,092509
1674,000000	0,096397
1673,000000	0,101829
1672,000000	0,102876
1671,000000	0,099393
1670,000000	0,096048
1669,000000	0,096636
1668,000000	0,100961
1667,000000	0,106159
1666,000000	0,109276
1665,000000	0,108960
1664,000000	0,106262
1663,000000	0,103786
1662,000000	0,103415
1661,000000	0,104856
1660,000000	0,106628
1659,000000	0,107986
1658,000000	0,108890
1657,000000	0,107838
1656,000000	0,101563
1655,000000	0,088802
1654,000000	0,074550
1653,000000	0,068082
1652,000000	0,074504
1651,000000	0,088768
1650,000000	0,099742
1649,000000	0,100629
1648,000000	0,094257
1647,000000	0,088568
1646,000000	0,088918
1645,000000	0,094930
1644,000000	0,102394
1643,000000	0,107147
1642,000000	0,108118
1641,000000	0,107625
1640,000000	0,107818
1639,000000	0,107019
1638,000000	0,101719
1637,000000	0,092544
1636,000000	0,085666
1635,000000	0,086532
1634,000000	0,093885
1633,000000	0,101931
1632,000000	0,106663
1631,000000	0,107999
1630,000000	0,107228
1629,000000	0,105344
1628,000000	0,103412
1627,000000	0,102118
1626,000000	0,100710
1625,000000	0,098072
1624,000000	0,095136
1623,000000	0,094533
1622,000000	0,097294
1621,000000	0,101061
1620,000000	0,102041
1619,000000	0,098240
1618,000000	0,091389
1617,000000	0,086346
1616,000000	0,087449
1615,000000	0,094286
1614,000000	0,101557
1613,000000	0,104352
1612,000000	0,102984
1611,000000	0,101273
1610,000000	0,101085
1609,000000	0,101123
1608,000000	0,100391
1607,000000	0,099855
1606,000000	0,100357
1605,000000	0,101165
1604,000000	0,101421
1603,000000	0,101497
1602,000000	0,101794
1601,000000	0,101759
1600,000000	0,101182
1599,000000	0,101038
1598,000000	0,101997
1597,000000	0,103226
1596,000000	0,103569
1595,000000	0,102955
1594,000000	0,101914
1593,000000	0,100754
1592,000000	0,099888
1591,000000	0,099903
1590,000000	0,100568
1589,000000	0,100690
1588,000000	0,099718
1587,000000	0,098760
1586,000000	0,099117
1585,000000	0,100497
1584,000000	0,101608
1583,000000	0,101921
1582,000000	0,102043
1581,000000	0,102545
1580,000000	0,102787
1579,000000	0,100776
1578,000000	0,094865
1577,000000	0,086620
1576,000000	0,081407
1575,000000	0,083913
1574,000000	0,092491
1573,000000	0,099797
1572,000000	0,100284
1571,000000	0,095546
1570,000000	0,091364
1569,000000	0,091208
1568,000000	0,094060
1567,000000	0,097229
1566,000000	0,099133
1565,000000	0,099624
1564,000000	0,098885
1563,000000	0,096095
1562,000000	0,089162
1561,000000	0,077284
1560,000000	0,064652
1559,000000	0,058903
1558,000000	0,063477
1557,000000	0,073420
1556,000000	0,081067
1555,000000	0,084371
1554,000000	0,086824
1553,000000	0,090576
1552,000000	0,093701
1551,000000	0,094595
1550,000000	0,094909
1549,000000	0,096424
1548,000000	0,097797
1547,000000	0,096755
1546,000000	0,093502
1545,000000	0,089910
1544,000000	0,086611
1543,000000	0,082499
1542,000000	0,076743
1541,000000	0,070603
1540,000000	0,067551
1539,000000	0,071061
1538,000000	0,080955
1537,000000	0,091788
1536,000000	0,096679
1535,000000	0,094170
1534,000000	0,089596
1533,000000	0,088714
1532,000000	0,091784
1531,000000	0,095228
1530,000000	0,096618
1529,000000	0,095938
1528,000000	0,093820
1527,000000	0,091454
1526,000000	0,090744
1525,000000	0,091689
1524,000000	0,090888
1523,000000	0,085679
1522,000000	0,079180
1521,000000	0,077534
1520,000000	0,081872
1519,000000	0,086819
1518,000000	0,087935
1517,000000	0,086984
1516,000000	0,087983
1515,000000	0,091004
1514,000000	0,092895
1513,000000	0,092464
1512,000000	0,091533
1511,000000	0,091100
1510,000000	0,089075
1509,000000	0,083110
1508,000000	0,074602
1507,000000	0,068625
1506,000000	0,069666
1505,000000	0,077437
1504,000000	0,086943
1503,000000	0,092875
1502,000000	0,093706
1501,000000	0,091358
1500,000000	0,087905
1499,000000	0,083983
1498,000000	0,080133
1497,000000	0,077781
1496,000000	0,078143
1495,000000	0,080983
1494,000000	0,084839
1493,000000	0,087748
1492,000000	0,088104
1491,000000	0,085904
1490,000000	0,083206
1489,000000	0,082338
1488,000000	0,083530
1487,000000	0,085368
1486,000000	0,087290
1485,000000	0,089676
1484,000000	0,091901
1483,000000	0,092620
1482,000000	0,092258
1481,000000	0,092901
1480,000000	0,094801
1479,000000	0,095502
1478,000000	0,093593
1477,000000	0,090711
1476,000000	0,088309
1475,000000	0,085285
1474,000000	0,080886
1473,000000	0,077642
1472,000000	0,078938
1471,000000	0,084480
1470,000000	0,090687
1469,000000	0,094488
1468,000000	0,094862
1467,000000	0,092195
1466,000000	0,088410
1465,000000	0,086724
1464,000000	0,088732
1463,000000	0,092306
1462,000000	0,093979
1461,000000	0,092508
1460,000000	0,088346
1459,000000	0,081672
1458,000000	0,073795
1457,000000	0,069121
1456,000000	0,071605
1455,000000	0,079371
1454,000000	0,086271
1453,000000	0,088934
1452,000000	0,089205
1451,000000	0,089415
1450,000000	0,089157
1449,000000	0,087776
1448,000000	0,086730
1447,000000	0,087465
1446,000000	0,089213
1445,000000	0,090558
1444,000000	0,091424
1443,000000	0,092285
1442,000000	0,092843
1441,000000	0,092571
1440,000000	0,091111
1439,000000	0,087809
1438,000000	0,082818
1437,000000	0,078911
1436,000000	0,079564
1435,000000	0,084476
1434,000000	0,089267
1433,000000	0,090764
1432,000000	0,090131
1431,000000	0,089765
1430,000000	0,089915
1429,000000	0,089956
1428,000000	0,090376
1427,000000	0,091263
1426,000000	0,091128
1425,000000	0,089407
1424,000000	0,088033
1423,000000	0,088066
1422,000000	0,087070
1421,000000	0,082734
1420,000000	0,077419
1419,000000	0,075908
1418,000000	0,079326
1417,000000	0,084391
1416,000000	0,087971
1415,000000	0,089666
1414,000000	0,090021
1413,000000	0,089201
1412,000000	0,088047
1411,000000	0,087975
1410,000000	0,088971
1409,000000	0,089300
1408,000000	0,087814
1407,000000	0,085234
1406,000000	0,083147
1405,000000	0,082820
1404,000000	0,084803
1403,000000	0,088128
1402,000000	0,090154
1401,000000	0,088843
1400,000000	0,085384
1399,000000	0,082898
1398,000000	0,082546
1397,000000	0,082567
1396,000000	0,081303
1395,000000	0,079545
1394,000000	0,079208
1393,000000	0,081060
1392,000000	0,084208
1391,000000	0,086768
1390,000000	0,086919
1389,000000	0,084502
1388,000000	0,081786
1387,000000	0,081488
1386,000000	0,083813
1385,000000	0,086564
1384,000000	0,087990
1383,000000	0,088269
1382,000000	0,088284
1381,000000	0,088308
1380,000000	0,088430
1379,000000	0,088869
1378,000000	0,089192
1377,000000	0,088313
1376,000000	0,086000
1375,000000	0,083545
1374,000000	0,082434
1373,000000	0,083009
1372,000000	0,084676
1371,000000	0,086610
1370,000000	0,087948
1369,000000	0,088204
1368,000000	0,087881
1367,000000	0,087843
1366,000000	0,087861
1365,000000	0,086780
1364,000000	0,084365
1363,000000	0,081994
1362,000000	0,081047
1361,000000	0,081616
1360,000000	0,083121
1359,000000	0,085033
1358,000000	0,086538
1357,000000	0,086665
1356,000000	0,085497
1355,000000	0,084427
1354,000000	0,084455
1353,000000	0,084948
1352,000000	0,084915
1351,000000	0,084437
1350,000000	0,084190
1349,000000	0,084130
1348,000000	0,083769
1347,000000	0,083346
1346,000000	0,083465
1345,000000	0,083977
1344,000000	0,084116
1343,000000	0,083576
1342,000000	0,082767
1341,000000	0,082153
1340,000000	0,081965
1339,000000	0,082359
1338,000000	0,083217
1337,000000	0,083946
1336,000000	0,084055
1335,000000	0,083829
1334,000000	0,083945
1333,000000	0,084444
1332,000000	0,084655
1331,000000	0,084160
1330,000000	0,083258
1329,000000	0,082468
1328,000000	0,082083
1327,000000	0,082269
1326,000000	0,083104
1325,000000	0,084333
1324,000000	0,085328
1323,000000	0,085535
1322,000000	0,084922
1321,000000	0,084019
1320,000000	0,083504
1319,000000	0,083599
1318,000000	0,083940
1317,000000	0,083978
1316,000000	0,083479
1315,000000	0,082721
1314,000000	0,082173
1313,000000	0,082128
1312,000000	0,082628
1311,000000	0,083362
1310,000000	0,083618
1309,000000	0,082804
1308,000000	0,081218
1307,000000	0,080023
1306,000000	0,080109
1305,000000	0,081152
1304,000000	0,082083
1303,000000	0,082262
1302,000000	0,081942
1301,000000	0,081705
1300,000000	0,081774
1299,000000	0,082019
1298,000000	0,082289
1297,000000	0,082503
1296,000000	0,082442
1295,000000	0,081720
1294,000000	0,080171
1293,000000	0,078260
1292,000000	0,076874
1291,000000	0,076549
1290,000000	0,076979
1289,000000	0,077416
1288,000000	0,077474
1287,000000	0,077353
1286,000000	0,077289
1285,000000	0,077162
1284,000000	0,076854
1283,000000	0,076743
1282,000000	0,077370
1281,000000	0,078561
1280,000000	0,079336
1279,000000	0,078930
1278,000000	0,077666
1277,000000	0,076574
1276,000000	0,076331
1275,000000	0,076761
1274,000000	0,077200
1273,000000	0,077196
1272,000000	0,076711
1271,000000	0,075936
1270,000000	0,075252
1269,000000	0,075088
1268,000000	0,075450
1267,000000	0,075812
1266,000000	0,075725
1265,000000	0,075350
1264,000000	0,075057
1263,000000	0,074716
1262,000000	0,073977
1261,000000	0,073050
1260,000000	0,072607
1259,000000	0,072828
1258,000000	0,073085
1257,000000	0,072910
1256,000000	0,072626
1255,000000	0,072696
1254,000000	0,072949
1253,000000	0,072976
1252,000000	0,072911
1251,000000	0,073243
1250,000000	0,074011
1249,000000	0,074657
1248,000000	0,074712
1247,000000	0,074308
1246,000000	0,073998
1245,000000	0,074128
1244,000000	0,074397
1243,000000	0,074121
1242,000000	0,073036
1241,000000	0,071743
1240,000000	0,071040
1239,000000	0,070914
1238,000000	0,070631
1237,000000	0,069820
1236,000000	0,068960
1235,000000	0,068586
1234,000000	0,068606
1233,000000	0,068814
1232,000000	0,069404
1231,000000	0,070427
1230,000000	0,071256
1229,000000	0,071202
1228,000000	0,070304
1227,000000	0,069002
1226,000000	0,067444
1225,000000	0,065646
1224,000000	0,064060
1223,000000	0,063280
1222,000000	0,063230
1221,000000	0,063314
1220,000000	0,063294
1219,000000	0,063343
1218,000000	0,063512
1217,000000	0,063748
1216,000000	0,064291
1215,000000	0,065331
1214,000000	0,066271
1213,000000	0,066101
1212,000000	0,064598
1211,000000	0,062704
1210,000000	0,061604
1209,000000	0,061726
1208,000000	0,062633
1207,000000	0,063535
1206,000000	0,063843
1205,000000	0,063482
1204,000000	0,062831
1203,000000	0,062290
1202,000000	0,061924
1201,000000	0,061595
1200,000000	0,061277
1199,000000	0,061039
1198,000000	0,060945
1197,000000	0,061052
1196,000000	0,061170
1195,000000	0,060823
1194,000000	0,059792
1193,000000	0,058592
1192,000000	0,058117
1191,000000	0,058525
1190,000000	0,058978
1189,000000	0,058820
1188,000000	0,058385
1187,000000	0,058244
1186,000000	0,058310
1185,000000	0,058195
1184,000000	0,057822
1183,000000	0,057316
1182,000000	0,056617
1181,000000	0,055794
1180,000000	0,055392
1179,000000	0,055591
1178,000000	0,055638
1177,000000	0,054957
1176,000000	0,054293
1175,000000	0,054811
1174,000000	0,056366
1173,000000	0,057644
1172,000000	0,057861
1171,000000	0,057313
1170,000000	0,056401
1169,000000	0,055228
1168,000000	0,054148
1167,000000	0,053684
1166,000000	0,053778
1165,000000	0,053926
1164,000000	0,054042
1163,000000	0,054389
1162,000000	0,054674
1161,000000	0,054178
1160,000000	0,052904
1159,000000	0,051736
1158,000000	0,051329
1157,000000	0,051615
1156,000000	0,052438
1155,000000	0,053638
1154,000000	0,054417
1153,000000	0,053836
1152,000000	0,052287
1151,000000	0,051325
1150,000000	0,051559
1149,000000	0,051910
1148,000000	0,051362
1147,000000	0,050500
1146,000000	0,050402
1145,000000	0,050720
1144,000000	0,050329
1143,000000	0,049106
1142,000000	0,048000
1141,000000	0,047832
1140,000000	0,048449
1139,000000	0,048979
1138,000000	0,048705
1137,000000	0,047742
1136,000000	0,047007
1135,000000	0,047334
1134,000000	0,048527
1133,000000	0,049588
1132,000000	0,049940
1131,000000	0,049902
1130,000000	0,049847
1129,000000	0,049563
1128,000000	0,048865
1127,000000	0,048267
1126,000000	0,048344
1125,000000	0,048800
1124,000000	0,048857
1123,000000	0,048317
1122,000000	0,047624
1121,000000	0,047117
1120,000000	0,046800
1119,000000	0,046757
1118,000000	0,047044
1117,000000	0,047198
1116,000000	0,046580
1115,000000	0,045232
1114,000000	0,043977
1113,000000	0,043580
1112,000000	0,044012
1111,000000	0,044609
1110,000000	0,044831
1109,000000	0,044567
1108,000000	0,043883
1107,000000	0,042844
1106,000000	0,041656
1105,000000	0,040837
1104,000000	0,040943
1103,000000	0,041890
1102,000000	0,042855
1101,000000	0,043069
1100,000000	0,042512
1099,000000	0,041612
1098,000000	0,040594
1097,000000	0,039567
1096,000000	0,038934
1095,000000	0,039095
1094,000000	0,039880
1093,000000	0,040655
1092,000000	0,041120
1091,000000	0,041534
1090,000000	0,041924
1089,000000	0,041786
1088,000000	0,040910
1087,000000	0,039910
1086,000000	0,039364
1085,000000	0,039026
1084,000000	0,038754
1083,000000	0,038939
1082,000000	0,039745
1081,000000	0,040568
1080,000000	0,040597
1079,000000	0,039872
1078,000000	0,039090
1077,000000	0,038685
1076,000000	0,038598
1075,000000	0,039043
1074,000000	0,040170
1073,000000	0,041105
1072,000000	0,040776
1071,000000	0,039334
1070,000000	0,037919
1069,000000	0,037188
1068,000000	0,036904
1067,000000	0,036804
1066,000000	0,037049
1065,000000	0,037615
1064,000000	0,037860
1063,000000	0,037386
1062,000000	0,036772
1061,000000	0,036813
1060,000000	0,037531
1059,000000	0,038341
1058,000000	0,038766
1057,000000	0,038558
1056,000000	0,037470
1055,000000	0,035775
1054,000000	0,034611
1053,000000	0,034848
1052,000000	0,035918
1051,000000	0,036649
1050,000000	0,036893
1049,000000	0,037450
1048,000000	0,038409
1047,000000	0,038756
1046,000000	0,038022
1045,000000	0,037188
1044,000000	0,037243
1043,000000	0,037710
1042,000000	0,037561
1041,000000	0,036929
1040,000000	0,036783
1039,000000	0,037268
1038,000000	0,037542
1037,000000	0,037239
1036,000000	0,036910
1035,000000	0,037089
1034,000000	0,037705
1033,000000	0,038461
1032,000000	0,039121
1031,000000	0,039226
1030,000000	0,038406
1029,000000	0,037318
1028,000000	0,037273
1027,000000	0,038414
1026,000000	0,039264
1025,000000	0,038753
1024,000000	0,037755
1023,000000	0,037673
1022,000000	0,038375
1021,000000	0,038645
1020,000000	0,038213
1019,000000	0,038062
1018,000000	0,038706
1017,000000	0,039395
1016,000000	0,039234
1015,000000	0,038319
1014,000000	0,037336
1013,000000	0,036674
1012,000000	0,036390
1011,000000	0,036521
1010,000000	0,037120
1009,000000	0,038140
1008,000000	0,039392
1007,000000	0,040503
1006,000000	0,040944
1005,000000	0,040589
1004,000000	0,039946
1003,000000	0,039622
1002,000000	0,039783
1001,000000	0,040323
1000,000000	0,041265
999,000000	0,042480
998,000000	0,043357
997,000000	0,043240
996,000000	0,042202
995,000000	0,040842
994,000000	0,039555
993,000000	0,038539
992,000000	0,038257
991,000000	0,039117
990,000000	0,040548
989,000000	0,041421
988,000000	0,041457
987,000000	0,041402
986,000000	0,041880
985,000000	0,042533
984,000000	0,042683
983,000000	0,042178
982,000000	0,041250
981,000000	0,040132
980,000000	0,039153
979,000000	0,038825
978,000000	0,039188
977,000000	0,039474
976,000000	0,039062
975,000000	0,038196
974,000000	0,037521
973,000000	0,037422
972,000000	0,037762
971,000000	0,038167
970,000000	0,038443
969,000000	0,038676
968,000000	0,039175
967,000000	0,039963
966,000000	0,040401
965,000000	0,039956
964,000000	0,039169
963,000000	0,039139
962,000000	0,040017
961,000000	0,040793
960,000000	0,040676
959,000000	0,039979
958,000000	0,039395
957,000000	0,038950
956,000000	0,038226
955,000000	0,037128
954,000000	0,035921
953,000000	0,034905
952,000000	0,034466
951,000000	0,035008
950,000000	0,036366
949,000000	0,037659
948,000000	0,038184
947,000000	0,038161
946,000000	0,038138
945,000000	0,038082
944,000000	0,037669
943,000000	0,037112
942,000000	0,036899
941,000000	0,037053
940,000000	0,037214
939,000000	0,037309
938,000000	0,037585
937,000000	0,037910
936,000000	0,037701
935,000000	0,036728
934,000000	0,035495
933,000000	0,034622
932,000000	0,034237
931,000000	0,034152
930,000000	0,034412
929,000000	0,035117
928,000000	0,035841
927,000000	0,036057
926,000000	0,035652
925,000000	0,034694
924,000000	0,033484
923,000000	0,032708
922,000000	0,032845
921,000000	0,033769
920,000000	0,035018
919,000000	0,036005
918,000000	0,036129
917,000000	0,035125
916,000000	0,033438
915,000000	0,032008
914,000000	0,031477
913,000000	0,031682
912,000000	0,031963
911,000000	0,031947
910,000000	0,031870
909,000000	0,032070
908,000000	0,032472
907,000000	0,032609
906,000000	0,032074
905,000000	0,031229
904,000000	0,030975
903,000000	0,031676
902,000000	0,032716
901,000000	0,033236
900,000000	0,033090
899,000000	0,032766
898,000000	0,032577
897,000000	0,032270
896,000000	0,031697
895,000000	0,031320
894,000000	0,031532
893,000000	0,031947
892,000000	0,031808
891,000000	0,030944
890,000000	0,029866
889,000000	0,029058
888,000000	0,028607
887,000000	0,028432
886,000000	0,028541
885,000000	0,028913
884,000000	0,029321
883,000000	0,029462
882,000000	0,029247
881,000000	0,028858
880,000000	0,028580
879,000000	0,028581
878,000000	0,028853
877,000000	0,029255
876,000000	0,029539
875,000000	0,029457
874,000000	0,029046
873,000000	0,028738
872,000000	0,028995
871,000000	0,029738
870,000000	0,030257
869,000000	0,030045
868,000000	0,029544
867,000000	0,029666
866,000000	0,030589
865,000000	0,031477
864,000000	0,031565
863,000000	0,030934
862,000000	0,029996
861,000000	0,028917
860,000000	0,027882
859,000000	0,027442
858,000000	0,028013
857,000000	0,029172
856,000000	0,029910
855,000000	0,029595
854,000000	0,028522
853,000000	0,027567
852,000000	0,027441
851,000000	0,028155
850,000000	0,028911
849,000000	0,028805
848,000000	0,027819
847,000000	0,026928
846,000000	0,027128
845,000000	0,028289
844,000000	0,029293
843,000000	0,029344
842,000000	0,028765
841,000000	0,028445
840,000000	0,028637
839,000000	0,028521
838,000000	0,027474
837,000000	0,025979
836,000000	0,025160
835,000000	0,025760
834,000000	0,026974
833,000000	0,027296
832,000000	0,026481
831,000000	0,025398
830,000000	0,024426
829,000000	0,023222
828,000000	0,021910
827,000000	0,021468
826,000000	0,022543
825,000000	0,024433
824,000000	0,025816
823,000000	0,026174
822,000000	0,026048
821,000000	0,026003
820,000000	0,026038
819,000000	0,025865
818,000000	0,025286
817,000000	0,024468
816,000000	0,023949
815,000000	0,024146
814,000000	0,024947
813,000000	0,025746
812,000000	0,025943
811,000000	0,025633
810,000000	0,025262
809,000000	0,024977
808,000000	0,024762
807,000000	0,024775
806,000000	0,025183
805,000000	0,025870
804,000000	0,026464
803,000000	0,026819
802,000000	0,026953
801,000000	0,026539
800,000000	0,025257
799,000000	0,023546
798,000000	0,022547
797,000000	0,023091
796,000000	0,024695
795,000000	0,026382
794,000000	0,027548
793,000000	0,027535
792,000000	0,026365
791,000000	0,025211
790,000000	0,025051
789,000000	0,025749
788,000000	0,026508
787,000000	0,026784
786,000000	0,026647
785,000000	0,026304
784,000000	0,025774
783,000000	0,025188
782,000000	0,024942
781,000000	0,025259
780,000000	0,025908
779,000000	0,026456
778,000000	0,026599
777,000000	0,026432
776,000000	0,026315
775,000000	0,026337
774,000000	0,026128
773,000000	0,025426
772,000000	0,024643
771,000000	0,024555
770,000000	0,025230
769,000000	0,025592
768,000000	0,024703
767,000000	0,023146
766,000000	0,022348
765,000000	0,022719
764,000000	0,023407
763,000000	0,023494
762,000000	0,023080
761,000000	0,022935
760,000000	0,023395
759,000000	0,024196
758,000000	0,024733
757,000000	0,024891
756,000000	0,025224
755,000000	0,025966
754,000000	0,026662
753,000000	0,026642
752,000000	0,025763
751,000000	0,024710
750,000000	0,024245
749,000000	0,024318
748,000000	0,024286
747,000000	0,023925
746,000000	0,023741
745,000000	0,024179
744,000000	0,024898
743,000000	0,025205
742,000000	0,024977
741,000000	0,024805
740,000000	0,025269
739,000000	0,026239
738,000000	0,026989
737,000000	0,026951
736,000000	0,026164
735,000000	0,025040
734,000000	0,023832
733,000000	0,022470
732,000000	0,021039
731,000000	0,020243
730,000000	0,020956
729,000000	0,023019
728,000000	0,025066
727,000000	0,025850
726,000000	0,025186
725,000000	0,023753
724,000000	0,022349
723,000000	0,021370
722,000000	0,020762
721,000000	0,020277
720,000000	0,019733
719,000000	0,019235
718,000000	0,019088
717,000000	0,019341
716,000000	0,019766
715,000000	0,020211
714,000000	0,020697
713,000000	0,021186
712,000000	0,021434
711,000000	0,021247
710,000000	0,020841
709,000000	0,020614
708,000000	0,020771
707,000000	0,021152
706,000000	0,021361
705,000000	0,021141
704,000000	0,020598
703,000000	0,020175
702,000000	0,020298
701,000000	0,020938
700,000000	0,021650
699,000000	0,022024
698,000000	0,021858
697,000000	0,021030
696,000000	0,019605
695,000000	0,018104
694,000000	0,017224
693,000000	0,017129
692,000000	0,017262
691,000000	0,016999
690,000000	0,016484
689,000000	0,016419
688,000000	0,017063
687,000000	0,018036
686,000000	0,019042
685,000000	0,020075
684,000000	0,020834
683,000000	0,020580
682,000000	0,019084
681,000000	0,017297
680,000000	0,016512
679,000000	0,017088
678,000000	0,018113
677,000000	0,018546
676,000000	0,018355
675,000000	0,018139
674,000000	0,018249
673,000000	0,018504
672,000000	0,018342
671,000000	0,017145
670,000000	0,014821
669,000000	0,012375
668,000000	0,011430
667,000000	0,012572
666,000000	0,014971
665,000000	0,016989
664,000000	0,017451
663,000000	0,016646
662,000000	0,015640
661,000000	0,015367
660,000000	0,015933
659,000000	0,016623
658,000000	0,016858
657,000000	0,016685
656,000000	0,016626
655,000000	0,016968
654,000000	0,017240
653,000000	0,016787
652,000000	0,015809
651,000000	0,015074
650,000000	0,014811
649,000000	0,014577
648,000000	0,014131
647,000000	0,013858
646,000000	0,014153
645,000000	0,014922
644,000000	0,015575
643,000000	0,015552
642,000000	0,014819
641,000000	0,013721
640,000000	0,012818
639,000000	0,012736
638,000000	0,013344
637,000000	0,013630
636,000000	0,013241
635,000000	0,013133
634,000000	0,014190
633,000000	0,015752
632,000000	0,016380
631,000000	0,015646
630,000000	0,014465
629,000000	0,013688
628,000000	0,013237
627,000000	0,012801
626,000000	0,012537
625,000000	0,012838
624,000000	0,013621
623,000000	0,014400
622,000000	0,014821
621,000000	0,014684
620,000000	0,013901
619,000000	0,012740
618,000000	0,011853
617,000000	0,011763
616,000000	0,012423
615,000000	0,013334
614,000000	0,013908
613,000000	0,013790
612,000000	0,013119
611,000000	0,012523
610,000000	0,012547
609,000000	0,012922
608,000000	0,012765
607,000000	0,011789
606,000000	0,010879
605,000000	0,010966
604,000000	0,011986
603,000000	0,012952
602,000000	0,013048
601,000000	0,012467
600,000000	0,011700
599,000000	0,011372
598,000000	0,011406
597,000000	0,011042
596,000000	0,010522
595,000000	0,010247
594,000000	0,010114
593,000000	0,010104
592,000000	0,010453
591,000000	0,011044
590,000000	0,011530
589,000000	0,011775
588,000000	0,011860
587,000000	0,011912
586,000000	0,011936
585,000000	0,011572
584,000000	0,010509
583,000000	0,009378
582,000000	0,009240
581,000000	0,010301
580,000000	0,011616
579,000000	0,012074
578,000000	0,011539
577,000000	0,010710
576,000000	0,010163
575,000000	0,009865
574,000000	0,009491
573,000000	0,008998
572,000000	0,008501
571,000000	0,008125
570,000000	0,008204
569,000000	0,008936
568,000000	0,009890
567,000000	0,010396
566,000000	0,010242
565,000000	0,009697
564,000000	0,009067
563,000000	0,008339
562,000000	0,007559
561,000000	0,007054
560,000000	0,007045
559,000000	0,007512
558,000000	0,008220
557,000000	0,008969
556,000000	0,009395
555,000000	0,009101
554,000000	0,008269
553,000000	0,007922
552,000000	0,008726
551,000000	0,009728
550,000000	0,009748
549,000000	0,008840
548,000000	0,007910
547,000000	0,007397
546,000000	0,007005
545,000000	0,006654
544,000000	0,006460
543,000000	0,006243
542,000000	0,006129
541,000000	0,005978
540,000000	0,005502
539,000000	0,005073
538,000000	0,005093
537,000000	0,005309
536,000000	0,005256
535,000000	0,005053
534,000000	0,005252
533,000000	0,005978
532,000000	0,006862
531,000000	0,007574
530,000000	0,008015
529,000000	0,008237
528,000000	0,008242
527,000000	0,007735
526,000000	0,006762
525,000000	0,006147
524,000000	0,006239
523,000000	0,006566
522,000000	0,006641
521,000000	0,006602
520,000000	0,006738
519,000000	0,006849
518,000000	0,006618
517,000000	0,005977
516,000000	0,005275
515,000000	0,004811
514,000000	0,004439
513,000000	0,004084
512,000000	0,003869
511,000000	0,003735
510,000000	0,003436
509,000000	0,002997
508,000000	0,003191
507,000000	0,004200
506,000000	0,005194
505,000000	0,005507
504,000000	0,005203
503,000000	0,004915
502,000000	0,004742
501,000000	0,004347
500,000000	0,003819
499,000000	0,003517
498,000000	0,003827
497,000000	0,004782
496,000000	0,005920
495,000000	0,006794
494,000000	0,006991
493,000000	0,006424
492,000000	0,005445
491,000000	0,004218
490,000000	0,003462
489,000000	0,003710
488,000000	0,003847
487,000000	0,003714
486,000000	0,003328
485,000000	0,002823
484,000000	0,002759
483,000000	0,003424
482,000000	0,004446
481,000000	0,005129
480,000000	0,004979
479,000000	0,004158
478,000000	0,003359
477,000000	0,002949
476,000000	0,002651
475,000000	0,002218
474,000000	0,001863
473,000000	0,001850
472,000000	0,002663
471,000000	0,003904
470,000000	0,004815
469,000000	0,005191
468,000000	0,005231
467,000000	0,005441
466,000000	0,005795
465,000000	0,005776
464,000000	0,005138
463,000000	0,004236
462,000000	0,003709
461,000000	0,003672
460,000000	0,003847
459,000000	0,003907
458,000000	0,003640
457,000000	0,003459
456,000000	0,003719
455,000000	0,004117
454,000000	0,004235
453,000000	0,004090
452,000000	0,003929
451,000000	0,004191
450,000000	0,004406
449,000000	0,003865
448,000000	0,003234
447,000000	0,003117
446,000000	0,003239
445,000000	0,003608
444,000000	0,004076
443,000000	0,004129
442,000000	0,003776
441,000000	0,003415
440,000000	0,002785
439,000000	0,001993
438,000000	0,001798
437,000000	0,002555
436,000000	0,003764
435,000000	0,004756
434,000000	0,004875
433,000000	0,004312
432,000000	0,004175
431,000000	0,004697
430,000000	0,004859
429,000000	0,004121
428,000000	0,003265
427,000000	0,002815
426,000000	0,002812
425,000000	0,002900
424,000000	0,002891
423,000000	0,002885
422,000000	0,002914
421,000000	0,002880
420,000000	0,002994
419,000000	0,003211
418,000000	0,003059
417,000000	0,002563
416,000000	0,002024
415,000000	0,001452
414,000000	0,001590
413,000000	0,002002
412,000000	0,001870
411,000000	0,001554
410,000000	0,001151
409,000000	0,000702
408,000000	0,000313
407,000000	0,001301
406,000000	0,002063
405,000000	0,002320
404,000000	0,002038
403,000000	0,001209
402,000000	0,000737
401,000000	0,001408
400,000000	0,001632
399,000000	0,001511
398,000000	0,001660
397,000000	0,001840
396,000000	0,001680
395,000000	0,001374
394,000000	0,002111
393,000000	0,003076
392,000000	0,003041
391,000000	0,002158
390,000000	0,001215
389,000000	0,000809
388,000000	0,000858
387,000000	0,000956
386,000000	0,001099
385,000000	0,001036
384,000000	0,000629
383,000000	0,000475
382,000000	0,001182
381,000000	0,001686
380,000000	0,001431
379,000000	0,001016
378,000000	0,001961
377,000000	0,002619
376,000000	0,003265
375,000000	0,003802
374,000000	0,003219
373,000000	0,002352
372,000000	0,002753
371,000000	0,003112
370,000000	0,002410
369,000000	0,000986
368,000000	0,001552
367,000000	0,002478
366,000000	0,002421
365,000000	0,001960
364,000000	0,002372
363,000000	0,002191
362,000000	0,000695
361,000000	0,001022
360,000000	0,000940
359,000000	0,000458
358,000000	0,001222
357,000000	0,000789
356,000000	0,001001
355,000000	0,001511
354,000000	0,001315
353,000000	0,001145
352,000000	0,000959
351,000000	0,001365
350,000000	0,002701
349,000000	0,002948
348,000000	0,001571
347,000000	0,001427
346,000000	0,002903
345,000000	0,003308
344,000000	0,002631
343,000000	0,001268
342,000000	0,001269
341,000000	0,002098
340,000000	0,002755
339,000000	0,003344
338,000000	0,003374
337,000000	0,002981
336,000000	0,003157
335,000000	0,004116
334,000000	0,004526
333,000000	0,003351
332,000000	0,001225
331,000000	0,001148
330,000000	0,001121
329,000000	0,001977
328,000000	0,004077
327,000000	0,004891
326,000000	0,004450
325,000000	0,003778
324,000000	0,003112
323,000000	0,001768
322,000000	0,001497
321,000000	0,002956
320,000000	0,003082
319,000000	0,002387
318,000000	0,002274
317,000000	0,002873
316,000000	0,002790
315,000000	0,000729
314,000000	0,002006
313,000000	0,003883
312,000000	0,003593
311,000000	0,001646
310,000000	0,001716
309,000000	0,002940
308,000000	0,002827
307,000000	0,002066
306,000000	0,001790
305,000000	0,001004
304,000000	0,000773
303,000000	0,001325
302,000000	0,000440
301,000000	0,001391
300,000000	0,002481
299,000000	0,002967
298,000000	0,002628
297,000000	0,002039
296,000000	0,001926
295,000000	0,001832
294,000000	0,001487
293,000000	0,001629
292,000000	0,002051
291,000000	0,001719
290,000000	0,001280
289,000000	0,001764
288,000000	0,001704
287,000000	0,000906
286,000000	0,000240
285,000000	0,000358
284,000000	0,001104
283,000000	0,002337
282,000000	0,002983
281,000000	0,002200
280,000000	0,000431
279,000000	0,001945
278,000000	0,003170
277,000000	0,003486
276,000000	0,002895
275,000000	0,001921
274,000000	0,001183
273,000000	0,001014
272,000000	0,001275
271,000000	0,001972
270,000000	0,002640
269,000000	0,002740
268,000000	0,002133
267,000000	0,000882
266,000000	0,001121
265,000000	0,002644
264,000000	0,003147
263,000000	0,002713
262,000000	0,002395
261,000000	0,002890
260,000000	0,003491
259,000000	0,003404
258,000000	0,002366
257,000000	0,001466
256,000000	0,002392
255,000000	0,002848
254,000000	0,002009
253,000000	0,000747
252,000000	0,001029
251,000000	0,001861
250,000000	0,002284
249,000000	0,001800
248,000000	0,000912
247,000000	0,000661
246,000000	0,000924
245,000000	0,001000
244,000000	0,001508
243,000000	0,001687
242,000000	0,001380
241,000000	0,001319
240,000000	0,001331
239,000000	0,001402
238,000000	0,001834
237,000000	0,002158
236,000000	0,001693
235,000000	0,000994
234,000000	0,001519
233,000000	0,001738
232,000000	0,001608
231,000000	0,002005
230,000000	0,002570
229,000000	0,002874
228,000000	0,002157
227,000000	0,000447
226,000000	0,001735
225,000000	0,002512
224,000000	0,002731
223,000000	0,002845
222,000000	0,002334
221,000000	0,001362
220,000000	0,000916
219,000000	0,001515
218,000000	0,001884
217,000000	0,001659
216,000000	0,001041
215,000000	0,000467
214,000000	0,000708
213,000000	0,001047
212,000000	0,000953
211,000000	0,000423
210,000000	0,000757
209,000000	0,001307
208,000000	0,001569
207,000000	0,001447
206,000000	0,000914
205,000000	0,000465
204,000000	0,000583
203,000000	0,000681
202,000000	0,000764
201,000000	0,000596
200,000000	0,000178
