PE IR       SUBTECH     SPECTRUM    ASCII       PEDS        4.00        
   -1
Si transmittance.ASC
25/04/22
10:01:55.00
25/04/22
10:01:55.00
Praktikum
Sample 019 By Praktikum date Dienstag, April 22 2025
200,000000
#HDR
-1
-1
#GR
cm-1
EGY
1.0
0.0
4000,000000
-1,000000
3801
8
0,132998
0,000075
#DATA
4000,000000	0,099966
3999,000000	0,100273
3998,000000	0,099920
3997,000000	0,099591
3996,000000	0,099766
3995,000000	0,100152
3994,000000	0,100142
3993,000000	0,099628
3992,000000	0,099044
3991,000000	0,098856
3990,000000	0,099012
3989,000000	0,099003
3988,000000	0,098475
3987,000000	0,097600
3986,000000	0,096897
3985,000000	0,096764
3984,000000	0,097333
3983,000000	0,098490
3982,000000	0,099798
3981,000000	0,100525
3980,000000	0,100064
3979,000000	0,098603
3978,000000	0,097187
3977,000000	0,096835
3976,000000	0,097614
3975,000000	0,098766
3974,000000	0,099619
3973,000000	0,100031
3972,000000	0,100027
3971,000000	0,099488
3970,000000	0,098548
3969,000000	0,097969
3968,000000	0,098558
3967,000000	0,100219
3966,000000	0,101876
3965,000000	0,102345
3964,000000	0,101289
3963,000000	0,099401
3962,000000	0,097726
3961,000000	0,096939
3960,000000	0,097074
3959,000000	0,097623
3958,000000	0,098076
3957,000000	0,098335
3956,000000	0,098547
3955,000000	0,098810
3954,000000	0,099205
3953,000000	0,099919
3952,000000	0,101092
3951,000000	0,102430
3950,000000	0,103122
3949,000000	0,102598
3948,000000	0,101279
3947,000000	0,100203
3946,000000	0,099888
3945,000000	0,099812
3944,000000	0,099135
3943,000000	0,097811
3942,000000	0,096733
3941,000000	0,096784
3940,000000	0,097877
3939,000000	0,099149
3938,000000	0,099721
3937,000000	0,099272
3936,000000	0,098172
3935,000000	0,097185
3934,000000	0,097034
3933,000000	0,097876
3932,000000	0,099086
3931,000000	0,099829
3930,000000	0,099936
3929,000000	0,099873
3928,000000	0,099868
3927,000000	0,099427
3926,000000	0,098005
3925,000000	0,095969
3924,000000	0,094462
3923,000000	0,094327
3922,000000	0,095401
3921,000000	0,096784
3920,000000	0,097532
3919,000000	0,097132
3918,000000	0,095792
3917,000000	0,094593
3916,000000	0,094953
3915,000000	0,097362
3914,000000	0,100627
3913,000000	0,102730
3912,000000	0,102512
3911,000000	0,100598
3910,000000	0,098593
3909,000000	0,097585
3908,000000	0,097510
3907,000000	0,097497
3906,000000	0,096563
3905,000000	0,094285
3904,000000	0,091107
3903,000000	0,088202
3902,000000	0,086786
3901,000000	0,087209
3900,000000	0,088930
3899,000000	0,091342
3898,000000	0,094346
3897,000000	0,097885
3896,000000	0,101029
3895,000000	0,102109
3894,000000	0,100087
3893,000000	0,095826
3892,000000	0,091775
3891,000000	0,090265
3890,000000	0,091741
3889,000000	0,094322
3888,000000	0,095280
3887,000000	0,093495
3886,000000	0,090488
3885,000000	0,088976
3884,000000	0,090079
3883,000000	0,092202
3882,000000	0,093008
3881,000000	0,092206
3880,000000	0,091832
3879,000000	0,093664
3878,000000	0,096853
3877,000000	0,098699
3876,000000	0,097652
3875,000000	0,095008
3874,000000	0,093254
3873,000000	0,093114
3872,000000	0,093022
3871,000000	0,091573
3870,000000	0,089573
3869,000000	0,088882
3868,000000	0,089779
3867,000000	0,090539
3866,000000	0,089846
3865,000000	0,088540
3864,000000	0,088363
3863,000000	0,089659
3862,000000	0,091279
3861,000000	0,092518
3860,000000	0,093903
3859,000000	0,095817
3858,000000	0,097036
3857,000000	0,095250
3856,000000	0,089301
3855,000000	0,080754
3854,000000	0,073347
3853,000000	0,070640
3852,000000	0,073624
3851,000000	0,080338
3850,000000	0,087817
3849,000000	0,094256
3848,000000	0,099258
3847,000000	0,102487
3846,000000	0,103161
3845,000000	0,101179
3844,000000	0,098020
3843,000000	0,095713
3842,000000	0,094765
3841,000000	0,093663
3840,000000	0,090808
3839,000000	0,086597
3838,000000	0,083378
3837,000000	0,083183
3836,000000	0,085887
3835,000000	0,089557
3834,000000	0,092398
3833,000000	0,094196
3832,000000	0,095663
3831,000000	0,097100
3830,000000	0,098203
3829,000000	0,098776
3828,000000	0,099105
3827,000000	0,099432
3826,000000	0,099457
3825,000000	0,098548
3824,000000	0,096203
3823,000000	0,092637
3822,000000	0,089195
3821,000000	0,087770
3820,000000	0,089025
3819,000000	0,091035
3818,000000	0,090812
3817,000000	0,087850
3816,000000	0,085377
3815,000000	0,087230
3814,000000	0,093634
3813,000000	0,100972
3812,000000	0,105480
3811,000000	0,106083
3810,000000	0,103750
3809,000000	0,099571
3808,000000	0,094727
3807,000000	0,091239
3806,000000	0,090845
3805,000000	0,092767
3804,000000	0,093763
3803,000000	0,091491
3802,000000	0,087315
3801,000000	0,085048
3800,000000	0,086989
3799,000000	0,091893
3798,000000	0,096746
3797,000000	0,099618
3796,000000	0,100733
3795,000000	0,101367
3794,000000	0,102434
3793,000000	0,103932
3792,000000	0,105189
3791,000000	0,105642
3790,000000	0,105493
3789,000000	0,105347
3788,000000	0,105184
3787,000000	0,104143
3786,000000	0,101805
3785,000000	0,099238
3784,000000	0,097966
3783,000000	0,098110
3782,000000	0,098155
3781,000000	0,096840
3780,000000	0,094773
3779,000000	0,093809
3778,000000	0,095069
3777,000000	0,097862
3776,000000	0,100544
3775,000000	0,102081
3774,000000	0,102615
3773,000000	0,102562
3772,000000	0,101724
3771,000000	0,099818
3770,000000	0,097612
3769,000000	0,096615
3768,000000	0,097297
3767,000000	0,098440
3766,000000	0,098924
3765,000000	0,099241
3764,000000	0,100358
3763,000000	0,101814
3762,000000	0,102120
3761,000000	0,100833
3760,000000	0,098982
3759,000000	0,097619
3758,000000	0,097040
3757,000000	0,097314
3756,000000	0,098239
3755,000000	0,098470
3754,000000	0,096059
3753,000000	0,090566
3752,000000	0,083951
3751,000000	0,079008
3750,000000	0,077640
3749,000000	0,080275
3748,000000	0,085180
3747,000000	0,088267
3746,000000	0,085948
3745,000000	0,079641
3744,000000	0,075634
3743,000000	0,078682
3742,000000	0,086559
3741,000000	0,092895
3740,000000	0,094175
3739,000000	0,091926
3738,000000	0,089024
3737,000000	0,086541
3736,000000	0,084623
3735,000000	0,083879
3734,000000	0,084597
3733,000000	0,086160
3732,000000	0,088238
3731,000000	0,091170
3730,000000	0,094477
3729,000000	0,096348
3728,000000	0,095722
3727,000000	0,094004
3726,000000	0,093437
3725,000000	0,094431
3724,000000	0,095640
3723,000000	0,096187
3722,000000	0,096521
3721,000000	0,097235
3720,000000	0,098140
3719,000000	0,098909
3718,000000	0,099768
3717,000000	0,100930
3716,000000	0,101701
3715,000000	0,100639
3714,000000	0,096872
3713,000000	0,091312
3712,000000	0,086563
3711,000000	0,085077
3710,000000	0,087190
3709,000000	0,091326
3708,000000	0,095678
3707,000000	0,099434
3706,000000	0,102288
3705,000000	0,103555
3704,000000	0,102769
3703,000000	0,100783
3702,000000	0,099471
3701,000000	0,099994
3700,000000	0,101768
3699,000000	0,103295
3698,000000	0,103753
3697,000000	0,103609
3696,000000	0,103758
3695,000000	0,104299
3694,000000	0,104287
3693,000000	0,102587
3692,000000	0,098700
3691,000000	0,093093
3690,000000	0,087312
3689,000000	0,083793
3688,000000	0,084647
3687,000000	0,089680
3686,000000	0,095939
3685,000000	0,100120
3684,000000	0,101413
3683,000000	0,101368
3682,000000	0,101408
3681,000000	0,101505
3680,000000	0,101106
3679,000000	0,099772
3678,000000	0,096730
3677,000000	0,091461
3676,000000	0,085695
3675,000000	0,083174
3674,000000	0,085684
3673,000000	0,090174
3672,000000	0,091682
3671,000000	0,089132
3670,000000	0,086392
3669,000000	0,087376
3668,000000	0,091853
3667,000000	0,096746
3666,000000	0,100026
3665,000000	0,101944
3664,000000	0,103218
3663,000000	0,103907
3662,000000	0,104169
3661,000000	0,104702
3660,000000	0,105683
3659,000000	0,105924
3658,000000	0,104062
3657,000000	0,100594
3656,000000	0,097848
3655,000000	0,097514
3654,000000	0,098647
3653,000000	0,098561
3652,000000	0,095631
3651,000000	0,090818
3650,000000	0,086518
3649,000000	0,084606
3648,000000	0,085796
3647,000000	0,089971
3646,000000	0,096066
3645,000000	0,101966
3644,000000	0,105659
3643,000000	0,106739
3642,000000	0,106395
3641,000000	0,105789
3640,000000	0,105050
3639,000000	0,104040
3638,000000	0,103139
3637,000000	0,102651
3636,000000	0,102160
3635,000000	0,101317
3634,000000	0,100693
3633,000000	0,100740
3632,000000	0,100125
3631,000000	0,096610
3630,000000	0,090253
3629,000000	0,084643
3628,000000	0,083882
3627,000000	0,088614
3626,000000	0,095636
3625,000000	0,101223
3624,000000	0,103867
3623,000000	0,104064
3622,000000	0,102669
3621,000000	0,100227
3620,000000	0,097422
3619,000000	0,095284
3618,000000	0,094536
3617,000000	0,094921
3616,000000	0,095423
3615,000000	0,095357
3614,000000	0,095192
3613,000000	0,095972
3612,000000	0,097743
3611,000000	0,099011
3610,000000	0,098465
3609,000000	0,096896
3608,000000	0,096546
3607,000000	0,098568
3606,000000	0,101832
3605,000000	0,104491
3604,000000	0,105799
3603,000000	0,105988
3602,000000	0,105296
3601,000000	0,103997
3600,000000	0,102786
3599,000000	0,102160
3598,000000	0,101674
3597,000000	0,100730
3596,000000	0,099796
3595,000000	0,099861
3594,000000	0,100834
3593,000000	0,101562
3592,000000	0,101481
3591,000000	0,101244
3590,000000	0,101316
3589,000000	0,100963
3588,000000	0,099426
3587,000000	0,097488
3586,000000	0,096916
3585,000000	0,098491
3584,000000	0,101244
3583,000000	0,103540
3582,000000	0,104547
3581,000000	0,104595
3580,000000	0,104446
3579,000000	0,104457
3578,000000	0,104441
3577,000000	0,104252
3576,000000	0,104250
3575,000000	0,104904
3574,000000	0,106124
3573,000000	0,107165
3572,000000	0,107204
3571,000000	0,105843
3570,000000	0,103159
3569,000000	0,099857
3568,000000	0,097337
3567,000000	0,097027
3566,000000	0,099162
3565,000000	0,102398
3564,000000	0,104932
3563,000000	0,105907
3562,000000	0,105704
3561,000000	0,105307
3560,000000	0,105435
3559,000000	0,106042
3558,000000	0,106465
3557,000000	0,106162
3556,000000	0,105350
3555,000000	0,104714
3554,000000	0,104552
3553,000000	0,104630
3552,000000	0,104922
3551,000000	0,105881
3550,000000	0,107499
3549,000000	0,108692
3548,000000	0,108350
3547,000000	0,106716
3546,000000	0,105167
3545,000000	0,104639
3544,000000	0,104847
3543,000000	0,105094
3542,000000	0,105228
3541,000000	0,105478
3540,000000	0,105728
3539,000000	0,105470
3538,000000	0,104622
3537,000000	0,104024
3536,000000	0,104701
3535,000000	0,106714
3534,000000	0,108825
3533,000000	0,109536
3532,000000	0,108514
3531,000000	0,106796
3530,000000	0,105658
3529,000000	0,105590
3528,000000	0,106250
3527,000000	0,106980
3526,000000	0,107227
3525,000000	0,106781
3524,000000	0,105970
3523,000000	0,105510
3522,000000	0,105853
3521,000000	0,106640
3520,000000	0,107055
3519,000000	0,106731
3518,000000	0,106122
3517,000000	0,106030
3516,000000	0,106844
3515,000000	0,108058
3514,000000	0,108603
3513,000000	0,107776
3512,000000	0,105941
3511,000000	0,104411
3510,000000	0,104340
3509,000000	0,105691
3508,000000	0,107364
3507,000000	0,108241
3506,000000	0,108069
3505,000000	0,107402
3504,000000	0,106796
3503,000000	0,106239
3502,000000	0,105434
3501,000000	0,104486
3500,000000	0,103947
3499,000000	0,104036
3498,000000	0,104345
3497,000000	0,104499
3496,000000	0,104806
3495,000000	0,105885
3494,000000	0,107614
3493,000000	0,109256
3492,000000	0,110355
3491,000000	0,110946
3490,000000	0,110944
3489,000000	0,110006
3488,000000	0,108323
3487,000000	0,106957
3486,000000	0,106829
3485,000000	0,107681
3484,000000	0,108441
3483,000000	0,108355
3482,000000	0,107381
3481,000000	0,105851
3480,000000	0,104352
3479,000000	0,103619
3478,000000	0,104078
3477,000000	0,105403
3476,000000	0,106736
3475,000000	0,107395
3474,000000	0,107284
3473,000000	0,106816
3472,000000	0,106661
3471,000000	0,107304
3470,000000	0,108403
3469,000000	0,108800
3468,000000	0,107674
3467,000000	0,105624
3466,000000	0,104147
3465,000000	0,104074
3464,000000	0,104942
3463,000000	0,105851
3462,000000	0,106451
3461,000000	0,106874
3460,000000	0,107141
3459,000000	0,107092
3458,000000	0,106813
3457,000000	0,106749
3456,000000	0,107267
3455,000000	0,108225
3454,000000	0,108986
3453,000000	0,108882
3452,000000	0,107877
3451,000000	0,106751
3450,000000	0,106386
3449,000000	0,106832
3448,000000	0,107242
3447,000000	0,106936
3446,000000	0,106266
3445,000000	0,106082
3444,000000	0,106505
3443,000000	0,106736
3442,000000	0,106201
3441,000000	0,105433
3440,000000	0,105432
3439,000000	0,106403
3438,000000	0,107548
3437,000000	0,107990
3436,000000	0,107542
3435,000000	0,106603
3434,000000	0,105661
3433,000000	0,105032
3432,000000	0,104748
3431,000000	0,104573
3430,000000	0,104370
3429,000000	0,104494
3428,000000	0,105470
3427,000000	0,107168
3426,000000	0,108763
3425,000000	0,109676
3424,000000	0,110092
3423,000000	0,110349
3422,000000	0,110318
3421,000000	0,109851
3420,000000	0,109356
3419,000000	0,109316
3418,000000	0,109590
3417,000000	0,109827
3416,000000	0,110160
3415,000000	0,110743
3414,000000	0,110927
3413,000000	0,109895
3412,000000	0,108039
3411,000000	0,106760
3410,000000	0,106747
3409,000000	0,107288
3408,000000	0,107460
3407,000000	0,107091
3406,000000	0,106333
3405,000000	0,105295
3404,000000	0,104557
3403,000000	0,105101
3402,000000	0,107041
3401,000000	0,109148
3400,000000	0,110225
3399,000000	0,110425
3398,000000	0,110507
3397,000000	0,110413
3396,000000	0,109551
3395,000000	0,108153
3394,000000	0,107290
3393,000000	0,107554
3392,000000	0,108461
3391,000000	0,109278
3390,000000	0,109905
3389,000000	0,110690
3388,000000	0,111729
3387,000000	0,112574
3386,000000	0,112584
3385,000000	0,111541
3384,000000	0,110150
3383,000000	0,109707
3382,000000	0,110910
3381,000000	0,113197
3380,000000	0,115331
3379,000000	0,116419
3378,000000	0,116243
3377,000000	0,115042
3376,000000	0,113438
3375,000000	0,112248
3374,000000	0,111784
3373,000000	0,111559
3372,000000	0,111180
3371,000000	0,111147
3370,000000	0,112042
3369,000000	0,113211
3368,000000	0,113213
3367,000000	0,111707
3366,000000	0,110029
3365,000000	0,109588
3364,000000	0,110402
3363,000000	0,111572
3362,000000	0,112528
3361,000000	0,113227
3360,000000	0,113559
3359,000000	0,113285
3358,000000	0,112536
3357,000000	0,111887
3356,000000	0,111863
3355,000000	0,112508
3354,000000	0,113388
3353,000000	0,113837
3352,000000	0,113311
3351,000000	0,111785
3350,000000	0,109872
3349,000000	0,108514
3348,000000	0,108473
3347,000000	0,109952
3346,000000	0,112382
3345,000000	0,114511
3344,000000	0,115162
3343,000000	0,114249
3342,000000	0,112947
3341,000000	0,112572
3340,000000	0,113259
3339,000000	0,113976
3338,000000	0,113822
3337,000000	0,112940
3336,000000	0,112137
3335,000000	0,111933
3334,000000	0,112234
3333,000000	0,112788
3332,000000	0,113512
3331,000000	0,114392
3330,000000	0,115342
3329,000000	0,116232
3328,000000	0,116823
3327,000000	0,116692
3326,000000	0,115590
3325,000000	0,114095
3324,000000	0,113511
3323,000000	0,114546
3322,000000	0,116305
3321,000000	0,117154
3320,000000	0,116630
3319,000000	0,115932
3318,000000	0,116241
3317,000000	0,117171
3316,000000	0,117372
3315,000000	0,116297
3314,000000	0,114788
3313,000000	0,113998
3312,000000	0,114153
3311,000000	0,114483
3310,000000	0,114290
3309,000000	0,113673
3308,000000	0,113226
3307,000000	0,113283
3306,000000	0,113552
3305,000000	0,113657
3304,000000	0,113686
3303,000000	0,113930
3302,000000	0,114376
3301,000000	0,114705
3300,000000	0,114650
3299,000000	0,114202
3298,000000	0,113568
3297,000000	0,113218
3296,000000	0,113781
3295,000000	0,115367
3294,000000	0,117056
3293,000000	0,117677
3292,000000	0,117089
3291,000000	0,116110
3290,000000	0,115241
3289,000000	0,114325
3288,000000	0,113597
3287,000000	0,114014
3286,000000	0,115919
3285,000000	0,118021
3284,000000	0,118561
3283,000000	0,117160
3282,000000	0,114822
3281,000000	0,112663
3280,000000	0,111251
3279,000000	0,110780
3278,000000	0,111113
3277,000000	0,111752
3276,000000	0,112341
3275,000000	0,113142
3274,000000	0,114414
3273,000000	0,115559
3272,000000	0,115756
3271,000000	0,115252
3270,000000	0,115143
3269,000000	0,115820
3268,000000	0,116441
3267,000000	0,116251
3266,000000	0,115590
3265,000000	0,115189
3264,000000	0,115170
3263,000000	0,115204
3262,000000	0,115190
3261,000000	0,115239
3260,000000	0,115211
3259,000000	0,114861
3258,000000	0,114263
3257,000000	0,113803
3256,000000	0,113845
3255,000000	0,114567
3254,000000	0,115866
3253,000000	0,117183
3252,000000	0,117655
3251,000000	0,116861
3250,000000	0,115450
3249,000000	0,114730
3248,000000	0,115460
3247,000000	0,117071
3246,000000	0,118166
3245,000000	0,117798
3244,000000	0,116252
3243,000000	0,114577
3242,000000	0,113457
3241,000000	0,112800
3240,000000	0,112428
3239,000000	0,112659
3238,000000	0,113810
3237,000000	0,115437
3236,000000	0,116627
3235,000000	0,116981
3234,000000	0,116820
3233,000000	0,116434
3232,000000	0,115797
3231,000000	0,115071
3230,000000	0,114791
3229,000000	0,115220
3228,000000	0,115974
3227,000000	0,116581
3226,000000	0,116958
3225,000000	0,117017
3224,000000	0,116407
3223,000000	0,115087
3222,000000	0,113849
3221,000000	0,113659
3220,000000	0,114526
3219,000000	0,115521
3218,000000	0,115820
3217,000000	0,115392
3216,000000	0,114729
3215,000000	0,114338
3214,000000	0,114545
3213,000000	0,115462
3212,000000	0,116931
3211,000000	0,118497
3210,000000	0,119606
3209,000000	0,119812
3208,000000	0,118976
3207,000000	0,117406
3206,000000	0,115868
3205,000000	0,115221
3204,000000	0,115776
3203,000000	0,117031
3202,000000	0,118027
3201,000000	0,118146
3200,000000	0,117578
3199,000000	0,116918
3198,000000	0,116446
3197,000000	0,115925
3196,000000	0,115129
3195,000000	0,114281
3194,000000	0,113822
3193,000000	0,113958
3192,000000	0,114544
3191,000000	0,115282
3190,000000	0,115815
3189,000000	0,115786
3188,000000	0,115244
3187,000000	0,114839
3186,000000	0,115314
3185,000000	0,116722
3184,000000	0,118354
3183,000000	0,119495
3182,000000	0,119935
3181,000000	0,119731
3180,000000	0,118908
3179,000000	0,117618
3178,000000	0,116200
3177,000000	0,114938
3176,000000	0,114035
3175,000000	0,113912
3174,000000	0,115112
3173,000000	0,117538
3172,000000	0,120111
3171,000000	0,121596
3170,000000	0,121655
3169,000000	0,120900
3168,000000	0,120113
3167,000000	0,119713
3166,000000	0,119778
3165,000000	0,120158
3164,000000	0,120540
3163,000000	0,120685
3162,000000	0,120653
3161,000000	0,120587
3160,000000	0,120397
3159,000000	0,119827
3158,000000	0,118812
3157,000000	0,117633
3156,000000	0,116769
3155,000000	0,116690
3154,000000	0,117560
3153,000000	0,118862
3152,000000	0,119594
3151,000000	0,119074
3150,000000	0,117631
3149,000000	0,116327
3148,000000	0,115995
3147,000000	0,116624
3146,000000	0,117462
3145,000000	0,117697
3144,000000	0,117188
3143,000000	0,116650
3142,000000	0,116933
3141,000000	0,117960
3140,000000	0,118812
3139,000000	0,118961
3138,000000	0,119025
3137,000000	0,119825
3136,000000	0,121119
3135,000000	0,121911
3134,000000	0,121730
3133,000000	0,120879
3132,000000	0,119634
3131,000000	0,118081
3130,000000	0,116832
3129,000000	0,116870
3128,000000	0,118252
3127,000000	0,119721
3126,000000	0,120095
3125,000000	0,119466
3124,000000	0,118582
3123,000000	0,117724
3122,000000	0,116928
3121,000000	0,116719
3120,000000	0,117636
3119,000000	0,119221
3118,000000	0,120355
3117,000000	0,120551
3116,000000	0,120191
3115,000000	0,119559
3114,000000	0,118605
3113,000000	0,117722
3112,000000	0,117758
3111,000000	0,118802
3110,000000	0,119792
3109,000000	0,119892
3108,000000	0,119615
3107,000000	0,119970
3106,000000	0,120984
3105,000000	0,121780
3104,000000	0,121824
3103,000000	0,121401
3102,000000	0,120971
3101,000000	0,120657
3100,000000	0,120480
3099,000000	0,120581
3098,000000	0,120914
3097,000000	0,120929
3096,000000	0,119929
3095,000000	0,117854
3094,000000	0,115685
3093,000000	0,114795
3092,000000	0,115764
3091,000000	0,117902
3090,000000	0,120023
3089,000000	0,121469
3088,000000	0,122115
3087,000000	0,121777
3086,000000	0,120432
3085,000000	0,119034
3084,000000	0,119107
3083,000000	0,121023
3082,000000	0,123272
3081,000000	0,124040
3080,000000	0,123042
3079,000000	0,121354
3078,000000	0,120024
3077,000000	0,119524
3076,000000	0,120017
3075,000000	0,121200
3074,000000	0,122173
3073,000000	0,122308
3072,000000	0,122105
3071,000000	0,122424
3070,000000	0,123055
3069,000000	0,122962
3068,000000	0,121879
3067,000000	0,120659
3066,000000	0,119927
3065,000000	0,119441
3064,000000	0,119083
3063,000000	0,119357
3062,000000	0,120408
3061,000000	0,121427
3060,000000	0,121746
3059,000000	0,121835
3058,000000	0,122377
3057,000000	0,123017
3056,000000	0,122878
3055,000000	0,122064
3054,000000	0,121677
3053,000000	0,122310
3052,000000	0,123311
3051,000000	0,123699
3050,000000	0,123287
3049,000000	0,122569
3048,000000	0,121904
3047,000000	0,121178
3046,000000	0,120224
3045,000000	0,119291
3044,000000	0,118865
3043,000000	0,119003
3042,000000	0,119096
3041,000000	0,118590
3040,000000	0,117769
3039,000000	0,117420
3038,000000	0,117781
3037,000000	0,118273
3036,000000	0,118440
3035,000000	0,118603
3034,000000	0,119284
3033,000000	0,120369
3032,000000	0,121239
3031,000000	0,121551
3030,000000	0,121474
3029,000000	0,121320
3028,000000	0,121248
3027,000000	0,121255
3026,000000	0,121250
3025,000000	0,121199
3024,000000	0,121272
3023,000000	0,121613
3022,000000	0,121966
3021,000000	0,121902
3020,000000	0,121460
3019,000000	0,121100
3018,000000	0,120885
3017,000000	0,120345
3016,000000	0,119440
3015,000000	0,119020
3014,000000	0,119725
3013,000000	0,120947
3012,000000	0,121593
3011,000000	0,121547
3010,000000	0,121643
3009,000000	0,122254
3008,000000	0,122707
3007,000000	0,122300
3006,000000	0,121386
3005,000000	0,121127
3004,000000	0,122268
3003,000000	0,124235
3002,000000	0,125526
3001,000000	0,125139
3000,000000	0,123615
2999,000000	0,122298
2998,000000	0,121630
2997,000000	0,120934
2996,000000	0,120015
2995,000000	0,119924
2994,000000	0,121345
2993,000000	0,123126
2992,000000	0,123634
2991,000000	0,123003
2990,000000	0,122698
2989,000000	0,123113
2988,000000	0,123126
2987,000000	0,122206
2986,000000	0,121415
2985,000000	0,121678
2984,000000	0,122255
2983,000000	0,121842
2982,000000	0,120478
2981,000000	0,119335
2980,000000	0,119130
2979,000000	0,119575
2978,000000	0,120176
2977,000000	0,120795
2976,000000	0,121343
2975,000000	0,121593
2974,000000	0,121423
2973,000000	0,120914
2972,000000	0,120168
2971,000000	0,119261
2970,000000	0,118332
2969,000000	0,117555
2968,000000	0,117107
2967,000000	0,117253
2966,000000	0,118160
2965,000000	0,119467
2964,000000	0,120418
2963,000000	0,120708
2962,000000	0,120789
2961,000000	0,120904
2960,000000	0,120307
2959,000000	0,118206
2958,000000	0,115339
2957,000000	0,113692
2956,000000	0,114326
2955,000000	0,116178
2954,000000	0,117396
2953,000000	0,117385
2952,000000	0,117002
2951,000000	0,117143
2950,000000	0,117807
2949,000000	0,118457
2948,000000	0,118758
2947,000000	0,118820
2946,000000	0,118986
2945,000000	0,119389
2944,000000	0,119654
2943,000000	0,119129
2942,000000	0,117590
2941,000000	0,115667
2940,000000	0,114318
2939,000000	0,113921
2938,000000	0,114131
2937,000000	0,114587
2936,000000	0,115309
2935,000000	0,116179
2934,000000	0,116589
2933,000000	0,116062
2932,000000	0,114884
2931,000000	0,113748
2930,000000	0,113104
2929,000000	0,113065
2928,000000	0,113610
2927,000000	0,114359
2926,000000	0,114553
2925,000000	0,113865
2924,000000	0,113062
2923,000000	0,113180
2922,000000	0,114114
2921,000000	0,114759
2920,000000	0,114645
2919,000000	0,114539
2918,000000	0,115186
2917,000000	0,116112
2916,000000	0,116243
2915,000000	0,115410
2914,000000	0,114628
2913,000000	0,115043
2912,000000	0,116783
2911,000000	0,118890
2910,000000	0,120245
2909,000000	0,120569
2908,000000	0,120590
2907,000000	0,121130
2906,000000	0,122178
2905,000000	0,123025
2904,000000	0,123154
2903,000000	0,122647
2902,000000	0,121762
2901,000000	0,120772
2900,000000	0,120125
2899,000000	0,120194
2898,000000	0,120753
2897,000000	0,121167
2896,000000	0,121348
2895,000000	0,121789
2894,000000	0,122537
2893,000000	0,122858
2892,000000	0,122351
2891,000000	0,121775
2890,000000	0,122062
2889,000000	0,123083
2888,000000	0,124119
2887,000000	0,124956
2886,000000	0,125692
2885,000000	0,125797
2884,000000	0,124482
2883,000000	0,121992
2882,000000	0,119771
2881,000000	0,119048
2880,000000	0,119744
2879,000000	0,120737
2878,000000	0,120860
2877,000000	0,119806
2876,000000	0,118514
2875,000000	0,118437
2874,000000	0,119901
2873,000000	0,121481
2872,000000	0,121573
2871,000000	0,120333
2870,000000	0,119292
2869,000000	0,119264
2868,000000	0,119590
2867,000000	0,119482
2866,000000	0,119196
2865,000000	0,119458
2864,000000	0,120445
2863,000000	0,121679
2862,000000	0,122472
2861,000000	0,122231
2860,000000	0,120931
2859,000000	0,119507
2858,000000	0,119224
2857,000000	0,120226
2856,000000	0,121164
2855,000000	0,120757
2854,000000	0,119345
2853,000000	0,118347
2852,000000	0,118471
2851,000000	0,119232
2850,000000	0,120128
2849,000000	0,121375
2848,000000	0,123171
2847,000000	0,124830
2846,000000	0,125290
2845,000000	0,124352
2844,000000	0,122994
2843,000000	0,122306
2842,000000	0,122374
2841,000000	0,122421
2840,000000	0,121883
2839,000000	0,121016
2838,000000	0,120446
2837,000000	0,120433
2836,000000	0,120790
2835,000000	0,121291
2834,000000	0,121834
2833,000000	0,122341
2832,000000	0,122734
2831,000000	0,122993
2830,000000	0,123059
2829,000000	0,122867
2828,000000	0,122584
2827,000000	0,122572
2826,000000	0,122926
2825,000000	0,123271
2824,000000	0,123264
2823,000000	0,123060
2822,000000	0,123001
2821,000000	0,123090
2820,000000	0,123218
2819,000000	0,123669
2818,000000	0,124782
2817,000000	0,126243
2816,000000	0,127230
2815,000000	0,127399
2814,000000	0,127258
2813,000000	0,127402
2812,000000	0,127757
2811,000000	0,127805
2810,000000	0,127343
2809,000000	0,126702
2808,000000	0,126312
2807,000000	0,126240
2806,000000	0,126111
2805,000000	0,125463
2804,000000	0,124283
2803,000000	0,123192
2802,000000	0,122953
2801,000000	0,123741
2800,000000	0,124985
2799,000000	0,125895
2798,000000	0,126026
2797,000000	0,125441
2796,000000	0,124568
2795,000000	0,123974
2794,000000	0,124057
2793,000000	0,124802
2792,000000	0,125776
2791,000000	0,126456
2790,000000	0,126553
2789,000000	0,126104
2788,000000	0,125333
2787,000000	0,124484
2786,000000	0,123816
2785,000000	0,123635
2784,000000	0,124159
2783,000000	0,125157
2782,000000	0,125902
2781,000000	0,125793
2780,000000	0,125020
2779,000000	0,124322
2778,000000	0,124123
2777,000000	0,124278
2776,000000	0,124621
2775,000000	0,125250
2774,000000	0,126074
2773,000000	0,126612
2772,000000	0,126674
2771,000000	0,126811
2770,000000	0,127601
2769,000000	0,128731
2768,000000	0,129354
2767,000000	0,129095
2766,000000	0,128285
2765,000000	0,127388
2764,000000	0,126674
2763,000000	0,126305
2762,000000	0,126234
2761,000000	0,126083
2760,000000	0,125507
2759,000000	0,124679
2758,000000	0,124076
2757,000000	0,123852
2756,000000	0,123775
2755,000000	0,123723
2754,000000	0,123915
2753,000000	0,124616
2752,000000	0,125841
2751,000000	0,127258
2750,000000	0,128255
2749,000000	0,128305
2748,000000	0,127534
2747,000000	0,126781
2746,000000	0,126839
2745,000000	0,127748
2744,000000	0,128936
2743,000000	0,129814
2742,000000	0,130000
2741,000000	0,129336
2740,000000	0,128126
2739,000000	0,127093
2738,000000	0,126714
2737,000000	0,126829
2736,000000	0,127118
2735,000000	0,127593
2734,000000	0,128291
2733,000000	0,128929
2732,000000	0,129244
2731,000000	0,129270
2730,000000	0,128938
2729,000000	0,127965
2728,000000	0,126607
2727,000000	0,125875
2726,000000	0,126327
2725,000000	0,127172
2724,000000	0,127335
2723,000000	0,126908
2722,000000	0,126705
2721,000000	0,126892
2720,000000	0,127056
2719,000000	0,127210
2718,000000	0,127629
2717,000000	0,127936
2716,000000	0,127503
2715,000000	0,126635
2714,000000	0,126260
2713,000000	0,126475
2712,000000	0,126513
2711,000000	0,126174
2710,000000	0,126079
2709,000000	0,126337
2708,000000	0,126142
2707,000000	0,125142
2706,000000	0,124215
2705,000000	0,124301
2704,000000	0,125180
2703,000000	0,125974
2702,000000	0,126182
2701,000000	0,125771
2700,000000	0,124929
2699,000000	0,124248
2698,000000	0,124467
2697,000000	0,125615
2696,000000	0,126958
2695,000000	0,127941
2694,000000	0,128551
2693,000000	0,128654
2692,000000	0,127883
2691,000000	0,126492
2690,000000	0,125506
2689,000000	0,125553
2688,000000	0,126255
2687,000000	0,127086
2686,000000	0,128042
2685,000000	0,129054
2684,000000	0,129643
2683,000000	0,129691
2682,000000	0,129761
2681,000000	0,130077
2680,000000	0,129977
2679,000000	0,129013
2678,000000	0,127881
2677,000000	0,127474
2676,000000	0,127614
2675,000000	0,127501
2674,000000	0,126969
2673,000000	0,126514
2672,000000	0,126413
2671,000000	0,126521
2670,000000	0,126710
2669,000000	0,126960
2668,000000	0,127208
2667,000000	0,127483
2666,000000	0,127822
2665,000000	0,127801
2664,000000	0,126770
2663,000000	0,124958
2662,000000	0,123684
2661,000000	0,123943
2660,000000	0,125347
2659,000000	0,126949
2658,000000	0,128430
2657,000000	0,129719
2656,000000	0,130140
2655,000000	0,129141
2654,000000	0,127497
2653,000000	0,126556
2652,000000	0,126419
2651,000000	0,126077
2650,000000	0,125322
2649,000000	0,125251
2648,000000	0,126470
2647,000000	0,127904
2646,000000	0,128097
2645,000000	0,127059
2644,000000	0,126114
2643,000000	0,126214
2642,000000	0,127036
2641,000000	0,127665
2640,000000	0,127716
2639,000000	0,127661
2638,000000	0,128105
2637,000000	0,128922
2636,000000	0,129334
2635,000000	0,128949
2634,000000	0,128346
2633,000000	0,128369
2632,000000	0,129059
2631,000000	0,129716
2630,000000	0,129918
2629,000000	0,130010
2628,000000	0,130466
2627,000000	0,131161
2626,000000	0,131550
2625,000000	0,131368
2624,000000	0,130902
2623,000000	0,130544
2622,000000	0,130224
2621,000000	0,129446
2620,000000	0,128044
2619,000000	0,126718
2618,000000	0,126411
2617,000000	0,127122
2616,000000	0,127818
2615,000000	0,127769
2614,000000	0,127517
2613,000000	0,128080
2612,000000	0,129490
2611,000000	0,130632
2610,000000	0,130569
2609,000000	0,129617
2608,000000	0,128863
2607,000000	0,128794
2606,000000	0,128735
2605,000000	0,127808
2604,000000	0,126198
2603,000000	0,125082
2602,000000	0,125248
2601,000000	0,126217
2600,000000	0,127013
2599,000000	0,127440
2598,000000	0,128023
2597,000000	0,128967
2596,000000	0,129835
2595,000000	0,130241
2594,000000	0,130228
2593,000000	0,129892
2592,000000	0,129336
2591,000000	0,129084
2590,000000	0,129792
2589,000000	0,131244
2588,000000	0,132248
2587,000000	0,131946
2586,000000	0,130757
2585,000000	0,129652
2584,000000	0,128993
2583,000000	0,128616
2582,000000	0,128557
2581,000000	0,128973
2580,000000	0,129559
2579,000000	0,129685
2578,000000	0,129124
2577,000000	0,128221
2576,000000	0,127472
2575,000000	0,127236
2574,000000	0,127653
2573,000000	0,128487
2572,000000	0,129242
2571,000000	0,129635
2570,000000	0,129717
2569,000000	0,129453
2568,000000	0,128603
2567,000000	0,127301
2566,000000	0,126284
2565,000000	0,126174
2564,000000	0,126859
2563,000000	0,127875
2562,000000	0,128905
2561,000000	0,129580
2560,000000	0,129406
2559,000000	0,128466
2558,000000	0,127701
2557,000000	0,127910
2556,000000	0,128793
2555,000000	0,129587
2554,000000	0,130133
2553,000000	0,130580
2552,000000	0,130563
2551,000000	0,129724
2550,000000	0,128766
2549,000000	0,128818
2548,000000	0,129754
2547,000000	0,130208
2546,000000	0,129502
2545,000000	0,128526
2544,000000	0,128397
2543,000000	0,129051
2542,000000	0,129717
2541,000000	0,130023
2540,000000	0,130015
2539,000000	0,129672
2538,000000	0,129123
2537,000000	0,128916
2536,000000	0,129300
2535,000000	0,129527
2534,000000	0,128641
2533,000000	0,126937
2532,000000	0,125941
2531,000000	0,126691
2530,000000	0,128567
2529,000000	0,130052
2528,000000	0,130319
2527,000000	0,129699
2526,000000	0,128923
2525,000000	0,128437
2524,000000	0,128404
2523,000000	0,128825
2522,000000	0,129433
2521,000000	0,129741
2520,000000	0,129466
2519,000000	0,128910
2518,000000	0,128670
2517,000000	0,128949
2516,000000	0,129410
2515,000000	0,129592
2514,000000	0,129273
2513,000000	0,128550
2512,000000	0,127771
2511,000000	0,127362
2510,000000	0,127533
2509,000000	0,128090
2508,000000	0,128598
2507,000000	0,128661
2506,000000	0,128044
2505,000000	0,126763
2504,000000	0,125285
2503,000000	0,124466
2502,000000	0,124903
2501,000000	0,126321
2500,000000	0,127816
2499,000000	0,128693
2498,000000	0,128879
2497,000000	0,128665
2496,000000	0,128341
2495,000000	0,128070
2494,000000	0,127923
2493,000000	0,127956
2492,000000	0,128260
2491,000000	0,128818
2490,000000	0,129306
2489,000000	0,129338
2488,000000	0,129043
2487,000000	0,128946
2486,000000	0,129079
2485,000000	0,128774
2484,000000	0,127822
2483,000000	0,127182
2482,000000	0,127780
2481,000000	0,129027
2480,000000	0,129547
2479,000000	0,129056
2478,000000	0,128478
2477,000000	0,128409
2476,000000	0,128548
2475,000000	0,128664
2474,000000	0,128891
2473,000000	0,128922
2472,000000	0,128121
2471,000000	0,126807
2470,000000	0,126171
2469,000000	0,126531
2468,000000	0,126792
2467,000000	0,126262
2466,000000	0,125839
2465,000000	0,126631
2464,000000	0,128388
2463,000000	0,130163
2462,000000	0,131632
2461,000000	0,132763
2460,000000	0,132998
2459,000000	0,131932
2458,000000	0,130323
2457,000000	0,129345
2456,000000	0,129175
2455,000000	0,129207
2454,000000	0,129237
2453,000000	0,129537
2452,000000	0,130064
2451,000000	0,130443
2450,000000	0,130494
2449,000000	0,130105
2448,000000	0,129025
2447,000000	0,127522
2446,000000	0,126710
2445,000000	0,127339
2444,000000	0,128687
2443,000000	0,129540
2442,000000	0,129846
2441,000000	0,130327
2440,000000	0,130870
2439,000000	0,130656
2438,000000	0,129810
2437,000000	0,129396
2436,000000	0,129565
2435,000000	0,129082
2434,000000	0,127269
2433,000000	0,125295
2432,000000	0,124775
2431,000000	0,125842
2430,000000	0,127316
2429,000000	0,128227
2428,000000	0,128493
2427,000000	0,128432
2426,000000	0,128272
2425,000000	0,128064
2424,000000	0,127817
2423,000000	0,127689
2422,000000	0,128017
2421,000000	0,128915
2420,000000	0,129908
2419,000000	0,130411
2418,000000	0,130500
2417,000000	0,130685
2416,000000	0,130955
2415,000000	0,130685
2414,000000	0,129620
2413,000000	0,128360
2412,000000	0,127511
2411,000000	0,126942
2410,000000	0,126377
2409,000000	0,126150
2408,000000	0,126662
2407,000000	0,127477
2406,000000	0,127720
2405,000000	0,127311
2404,000000	0,127089
2403,000000	0,127550
2402,000000	0,128117
2401,000000	0,128064
2400,000000	0,127693
2399,000000	0,127973
2398,000000	0,129122
2397,000000	0,130158
2396,000000	0,130054
2395,000000	0,128905
2394,000000	0,127644
2393,000000	0,126990
2392,000000	0,126992
2391,000000	0,127280
2390,000000	0,127361
2389,000000	0,126887
2388,000000	0,126046
2387,000000	0,125468
2386,000000	0,125223
2385,000000	0,124247
2384,000000	0,121473
2383,000000	0,117264
2382,000000	0,112884
2381,000000	0,108675
2380,000000	0,103900
2379,000000	0,098433
2378,000000	0,093327
2377,000000	0,089110
2376,000000	0,084632
2375,000000	0,078674
2374,000000	0,071958
2373,000000	0,066468
2372,000000	0,063053
2371,000000	0,060624
2370,000000	0,057578
2369,000000	0,053474
2368,000000	0,049353
2367,000000	0,046593
2366,000000	0,045585
2365,000000	0,045347
2364,000000	0,044460
2363,000000	0,042619
2362,000000	0,040951
2361,000000	0,040472
2360,000000	0,040795
2359,000000	0,041012
2358,000000	0,041258
2357,000000	0,042553
2356,000000	0,045421
2355,000000	0,049390
2354,000000	0,053695
2353,000000	0,058070
2352,000000	0,062956
2351,000000	0,069047
2350,000000	0,075939
2349,000000	0,081054
2348,000000	0,080975
2347,000000	0,075038
2346,000000	0,066840
2345,000000	0,060971
2344,000000	0,058702
2343,000000	0,058011
2342,000000	0,057150
2341,000000	0,056347
2340,000000	0,056222
2339,000000	0,056387
2338,000000	0,056281
2337,000000	0,056057
2336,000000	0,056042
2335,000000	0,056186
2334,000000	0,056455
2333,000000	0,057041
2332,000000	0,057853
2331,000000	0,058510
2330,000000	0,059182
2329,000000	0,060648
2328,000000	0,063015
2327,000000	0,065111
2326,000000	0,065829
2325,000000	0,065547
2324,000000	0,065591
2323,000000	0,066664
2322,000000	0,068453
2321,000000	0,070464
2320,000000	0,072579
2319,000000	0,074952
2318,000000	0,077694
2317,000000	0,080580
2316,000000	0,083121
2315,000000	0,085147
2314,000000	0,087143
2313,000000	0,089754
2312,000000	0,092965
2311,000000	0,096142
2310,000000	0,098777
2309,000000	0,100743
2308,000000	0,102015
2307,000000	0,102797
2306,000000	0,103765
2305,000000	0,105568
2304,000000	0,107985
2303,000000	0,110130
2302,000000	0,111672
2301,000000	0,113261
2300,000000	0,115419
2299,000000	0,117640
2298,000000	0,119045
2297,000000	0,119467
2296,000000	0,119435
2295,000000	0,119471
2294,000000	0,119864
2293,000000	0,120757
2292,000000	0,121934
2291,000000	0,122726
2290,000000	0,122587
2289,000000	0,121808
2288,000000	0,121344
2287,000000	0,121931
2286,000000	0,123467
2285,000000	0,125272
2284,000000	0,126752
2283,000000	0,127701
2282,000000	0,128064
2281,000000	0,127682
2280,000000	0,126518
2279,000000	0,125141
2278,000000	0,124595
2277,000000	0,125377
2276,000000	0,126727
2275,000000	0,127361
2274,000000	0,126796
2273,000000	0,125546
2272,000000	0,124274
2271,000000	0,123282
2270,000000	0,122793
2269,000000	0,123149
2268,000000	0,124434
2267,000000	0,126119
2266,000000	0,127276
2265,000000	0,127168
2264,000000	0,125878
2263,000000	0,124491
2262,000000	0,124309
2261,000000	0,125489
2260,000000	0,126722
2259,000000	0,126686
2258,000000	0,125566
2257,000000	0,124623
2256,000000	0,124523
2255,000000	0,124813
2254,000000	0,124913
2253,000000	0,124863
2252,000000	0,124953
2251,000000	0,125213
2250,000000	0,125522
2249,000000	0,125759
2248,000000	0,125772
2247,000000	0,125561
2246,000000	0,125474
2245,000000	0,125809
2244,000000	0,126281
2243,000000	0,126386
2242,000000	0,126228
2241,000000	0,126400
2240,000000	0,126983
2239,000000	0,127326
2238,000000	0,126918
2237,000000	0,125924
2236,000000	0,124766
2235,000000	0,123785
2234,000000	0,123413
2233,000000	0,124023
2232,000000	0,125365
2231,000000	0,126607
2230,000000	0,127166
2229,000000	0,127156
2228,000000	0,127005
2227,000000	0,127071
2226,000000	0,127607
2225,000000	0,128545
2224,000000	0,129236
2223,000000	0,128979
2222,000000	0,128023
2221,000000	0,127481
2220,000000	0,127980
2219,000000	0,128851
2218,000000	0,129015
2217,000000	0,128216
2216,000000	0,127098
2215,000000	0,126454
2214,000000	0,126589
2213,000000	0,127083
2212,000000	0,127076
2211,000000	0,126120
2210,000000	0,124810
2209,000000	0,124241
2208,000000	0,124795
2207,000000	0,125804
2206,000000	0,126402
2205,000000	0,126381
2204,000000	0,126084
2203,000000	0,125918
2202,000000	0,126196
2201,000000	0,126944
2200,000000	0,127652
2199,000000	0,127751
2198,000000	0,127352
2197,000000	0,126981
2196,000000	0,126662
2195,000000	0,125919
2194,000000	0,124807
2193,000000	0,124232
2192,000000	0,124870
2191,000000	0,126312
2190,000000	0,127585
2189,000000	0,128096
2188,000000	0,127860
2187,000000	0,127247
2186,000000	0,126716
2185,000000	0,126449
2184,000000	0,126143
2183,000000	0,125488
2182,000000	0,124806
2181,000000	0,124730
2180,000000	0,125312
2179,000000	0,126054
2178,000000	0,126760
2177,000000	0,127628
2176,000000	0,128432
2175,000000	0,128422
2174,000000	0,127349
2173,000000	0,125909
2172,000000	0,124874
2171,000000	0,124389
2170,000000	0,124401
2169,000000	0,125017
2168,000000	0,126041
2167,000000	0,126763
2166,000000	0,126709
2165,000000	0,126183
2164,000000	0,125758
2163,000000	0,125603
2162,000000	0,125575
2161,000000	0,125507
2160,000000	0,125121
2159,000000	0,124276
2158,000000	0,123517
2157,000000	0,123701
2156,000000	0,124848
2155,000000	0,125986
2154,000000	0,126364
2153,000000	0,126142
2152,000000	0,125673
2151,000000	0,124962
2150,000000	0,124229
2149,000000	0,124153
2148,000000	0,124947
2147,000000	0,125857
2146,000000	0,126166
2145,000000	0,125992
2144,000000	0,125623
2143,000000	0,124845
2142,000000	0,123608
2141,000000	0,122709
2140,000000	0,122985
2139,000000	0,124188
2138,000000	0,125282
2137,000000	0,125612
2136,000000	0,125308
2135,000000	0,124879
2134,000000	0,124859
2133,000000	0,125462
2132,000000	0,126087
2131,000000	0,125709
2130,000000	0,124284
2129,000000	0,123129
2128,000000	0,123332
2127,000000	0,124398
2126,000000	0,125136
2125,000000	0,125208
2124,000000	0,124964
2123,000000	0,124393
2122,000000	0,123295
2121,000000	0,122122
2120,000000	0,121681
2119,000000	0,122024
2118,000000	0,122514
2117,000000	0,122851
2116,000000	0,123206
2115,000000	0,123540
2114,000000	0,123566
2113,000000	0,123412
2112,000000	0,123492
2111,000000	0,123683
2110,000000	0,123498
2109,000000	0,123070
2108,000000	0,123070
2107,000000	0,123574
2106,000000	0,123900
2105,000000	0,123727
2104,000000	0,123583
2103,000000	0,123978
2102,000000	0,124542
2101,000000	0,124478
2100,000000	0,123707
2099,000000	0,122942
2098,000000	0,122732
2097,000000	0,122900
2096,000000	0,122946
2095,000000	0,122767
2094,000000	0,122812
2093,000000	0,123493
2092,000000	0,124608
2091,000000	0,125482
2090,000000	0,125733
2089,000000	0,125461
2088,000000	0,124709
2087,000000	0,123516
2086,000000	0,122513
2085,000000	0,122619
2084,000000	0,123773
2083,000000	0,124684
2082,000000	0,124447
2081,000000	0,123766
2080,000000	0,123800
2079,000000	0,124341
2078,000000	0,124266
2077,000000	0,123549
2076,000000	0,123441
2075,000000	0,124475
2074,000000	0,125558
2073,000000	0,125539
2072,000000	0,124739
2071,000000	0,124363
2070,000000	0,125011
2069,000000	0,126224
2068,000000	0,127110
2067,000000	0,127013
2066,000000	0,125866
2065,000000	0,124313
2064,000000	0,123250
2063,000000	0,122966
2062,000000	0,123029
2061,000000	0,123101
2060,000000	0,123396
2059,000000	0,124087
2058,000000	0,124736
2057,000000	0,124802
2056,000000	0,124321
2055,000000	0,123756
2054,000000	0,123517
2053,000000	0,123881
2052,000000	0,124980
2051,000000	0,126422
2050,000000	0,127234
2049,000000	0,126696
2048,000000	0,125174
2047,000000	0,123718
2046,000000	0,122961
2045,000000	0,122799
2044,000000	0,122962
2043,000000	0,123342
2042,000000	0,123790
2041,000000	0,124036
2040,000000	0,123936
2039,000000	0,123540
2038,000000	0,122934
2037,000000	0,122281
2036,000000	0,121945
2035,000000	0,122204
2034,000000	0,122688
2033,000000	0,122638
2032,000000	0,121975
2031,000000	0,121639
2030,000000	0,122545
2029,000000	0,124390
2028,000000	0,125893
2027,000000	0,126130
2026,000000	0,125252
2025,000000	0,124015
2024,000000	0,123054
2023,000000	0,122643
2022,000000	0,122787
2021,000000	0,123213
2020,000000	0,123463
2019,000000	0,123289
2018,000000	0,122878
2017,000000	0,122646
2016,000000	0,122800
2015,000000	0,123130
2014,000000	0,123315
2013,000000	0,123368
2012,000000	0,123624
2011,000000	0,124196
2010,000000	0,124613
2009,000000	0,124314
2008,000000	0,123490
2007,000000	0,123022
2006,000000	0,123365
2005,000000	0,123891
2004,000000	0,123774
2003,000000	0,123212
2002,000000	0,123157
2001,000000	0,123943
2000,000000	0,124841
1999,000000	0,125090
1998,000000	0,124774
1997,000000	0,124344
1996,000000	0,123833
1995,000000	0,122941
1994,000000	0,121567
1993,000000	0,119962
1992,000000	0,118570
1991,000000	0,117884
1990,000000	0,118150
1989,000000	0,118965
1988,000000	0,119541
1987,000000	0,119634
1986,000000	0,119834
1985,000000	0,120714
1984,000000	0,122002
1983,000000	0,122936
1982,000000	0,123212
1981,000000	0,123188
1980,000000	0,123334
1979,000000	0,123847
1978,000000	0,124586
1977,000000	0,125081
1976,000000	0,124868
1975,000000	0,124145
1974,000000	0,123799
1973,000000	0,124364
1972,000000	0,125170
1971,000000	0,125053
1970,000000	0,123800
1969,000000	0,122408
1968,000000	0,121947
1967,000000	0,122553
1966,000000	0,123496
1965,000000	0,123876
1964,000000	0,123339
1963,000000	0,122346
1962,000000	0,121705
1961,000000	0,121729
1960,000000	0,121962
1959,000000	0,121893
1958,000000	0,121689
1957,000000	0,121845
1956,000000	0,122343
1955,000000	0,122626
1954,000000	0,122339
1953,000000	0,121666
1952,000000	0,121053
1951,000000	0,120877
1950,000000	0,121243
1949,000000	0,121879
1948,000000	0,122402
1947,000000	0,122785
1946,000000	0,123127
1945,000000	0,122929
1944,000000	0,121520
1943,000000	0,119544
1942,000000	0,118979
1941,000000	0,120808
1940,000000	0,123376
1939,000000	0,124114
1938,000000	0,122491
1937,000000	0,120201
1936,000000	0,118790
1935,000000	0,118389
1934,000000	0,118644
1933,000000	0,119552
1932,000000	0,120936
1931,000000	0,122161
1930,000000	0,122901
1929,000000	0,123594
1928,000000	0,124724
1927,000000	0,125974
1926,000000	0,126351
1925,000000	0,125059
1924,000000	0,122478
1923,000000	0,120312
1922,000000	0,120129
1921,000000	0,121364
1920,000000	0,121590
1919,000000	0,119519
1918,000000	0,116861
1917,000000	0,116170
1916,000000	0,117548
1915,000000	0,118999
1914,000000	0,119487
1913,000000	0,119690
1912,000000	0,120016
1911,000000	0,119919
1910,000000	0,119391
1909,000000	0,119481
1908,000000	0,120568
1907,000000	0,121535
1906,000000	0,121526
1905,000000	0,121180
1904,000000	0,121274
1903,000000	0,121412
1902,000000	0,121054
1901,000000	0,120715
1900,000000	0,121061
1899,000000	0,121587
1898,000000	0,121309
1897,000000	0,120263
1896,000000	0,119415
1895,000000	0,119404
1894,000000	0,120017
1893,000000	0,120572
1892,000000	0,120421
1891,000000	0,119467
1890,000000	0,118492
1889,000000	0,118617
1888,000000	0,120053
1887,000000	0,121723
1886,000000	0,122515
1885,000000	0,122373
1884,000000	0,121808
1883,000000	0,121225
1882,000000	0,121131
1881,000000	0,122007
1880,000000	0,123357
1879,000000	0,123784
1878,000000	0,122643
1877,000000	0,120956
1876,000000	0,120095
1875,000000	0,120254
1874,000000	0,120701
1873,000000	0,120650
1872,000000	0,119364
1871,000000	0,116407
1870,000000	0,112718
1869,000000	0,110519
1868,000000	0,111174
1867,000000	0,113712
1866,000000	0,116176
1865,000000	0,117750
1864,000000	0,118741
1863,000000	0,119323
1862,000000	0,119462
1861,000000	0,119581
1860,000000	0,120131
1859,000000	0,120765
1858,000000	0,120882
1857,000000	0,120671
1856,000000	0,120727
1855,000000	0,121028
1854,000000	0,121197
1853,000000	0,121428
1852,000000	0,122133
1851,000000	0,122874
1850,000000	0,122643
1849,000000	0,121124
1848,000000	0,118695
1847,000000	0,115369
1846,000000	0,110997
1845,000000	0,106735
1844,000000	0,105055
1843,000000	0,107441
1842,000000	0,112526
1841,000000	0,117202
1840,000000	0,119429
1839,000000	0,119553
1838,000000	0,119092
1837,000000	0,118924
1836,000000	0,118981
1835,000000	0,119061
1834,000000	0,119016
1833,000000	0,118148
1832,000000	0,115645
1831,000000	0,112286
1830,000000	0,110607
1829,000000	0,112127
1828,000000	0,114845
1827,000000	0,115258
1826,000000	0,112889
1825,000000	0,110911
1824,000000	0,111838
1823,000000	0,114693
1822,000000	0,117319
1821,000000	0,119320
1820,000000	0,121256
1819,000000	0,122528
1818,000000	0,122118
1817,000000	0,120541
1816,000000	0,119334
1815,000000	0,118996
1814,000000	0,118696
1813,000000	0,117841
1812,000000	0,116688
1811,000000	0,115625
1810,000000	0,114826
1809,000000	0,114526
1808,000000	0,114833
1807,000000	0,115527
1806,000000	0,116507
1805,000000	0,117835
1804,000000	0,118830
1803,000000	0,118155
1802,000000	0,115655
1801,000000	0,113169
1800,000000	0,112446
1799,000000	0,113174
1798,000000	0,114168
1797,000000	0,115152
1796,000000	0,115880
1795,000000	0,114724
1794,000000	0,110468
1793,000000	0,105037
1792,000000	0,102273
1791,000000	0,103784
1790,000000	0,107656
1789,000000	0,111257
1788,000000	0,113476
1787,000000	0,114214
1786,000000	0,113607
1785,000000	0,112398
1784,000000	0,111675
1783,000000	0,111564
1782,000000	0,111237
1781,000000	0,110527
1780,000000	0,110418
1779,000000	0,111542
1778,000000	0,113234
1777,000000	0,114265
1776,000000	0,113592
1775,000000	0,110537
1774,000000	0,105673
1773,000000	0,101599
1772,000000	0,101115
1771,000000	0,103963
1770,000000	0,106921
1769,000000	0,107853
1768,000000	0,108235
1767,000000	0,110546
1766,000000	0,114240
1765,000000	0,115922
1764,000000	0,113292
1763,000000	0,108000
1762,000000	0,104335
1761,000000	0,105077
1760,000000	0,108691
1759,000000	0,110935
1758,000000	0,109694
1757,000000	0,107514
1756,000000	0,108051
1755,000000	0,110861
1754,000000	0,111819
1753,000000	0,108769
1752,000000	0,104379
1751,000000	0,102302
1750,000000	0,102891
1749,000000	0,104258
1748,000000	0,105728
1747,000000	0,107849
1746,000000	0,109996
1745,000000	0,110593
1744,000000	0,109438
1743,000000	0,107764
1742,000000	0,106033
1741,000000	0,103960
1740,000000	0,102724
1739,000000	0,104395
1738,000000	0,107746
1737,000000	0,107498
1736,000000	0,100283
1735,000000	0,090159
1734,000000	0,085359
1733,000000	0,089399
1732,000000	0,097911
1731,000000	0,104598
1730,000000	0,107763
1729,000000	0,109660
1728,000000	0,111672
1727,000000	0,112890
1726,000000	0,112604
1725,000000	0,111643
1724,000000	0,111088
1723,000000	0,111031
1722,000000	0,110778
1721,000000	0,109058
1720,000000	0,104457
1719,000000	0,097359
1718,000000	0,091241
1717,000000	0,089962
1716,000000	0,093563
1715,000000	0,098573
1714,000000	0,102615
1713,000000	0,106123
1712,000000	0,109461
1711,000000	0,111425
1710,000000	0,111578
1709,000000	0,111127
1708,000000	0,110135
1707,000000	0,107100
1706,000000	0,102994
1705,000000	0,101768
1704,000000	0,103686
1703,000000	0,102187
1702,000000	0,092406
1701,000000	0,080219
1700,000000	0,076395
1699,000000	0,082465
1698,000000	0,089147
1697,000000	0,089459
1696,000000	0,087332
1695,000000	0,090315
1694,000000	0,098840
1693,000000	0,106915
1692,000000	0,110141
1691,000000	0,109301
1690,000000	0,107368
1689,000000	0,106245
1688,000000	0,105377
1687,000000	0,101908
1686,000000	0,093876
1685,000000	0,084597
1684,000000	0,081320
1683,000000	0,087329
1682,000000	0,097568
1681,000000	0,104845
1680,000000	0,107477
1679,000000	0,107740
1678,000000	0,105813
1677,000000	0,100319
1676,000000	0,093838
1675,000000	0,092119
1674,000000	0,096616
1673,000000	0,101820
1672,000000	0,102056
1671,000000	0,097997
1670,000000	0,094598
1669,000000	0,095172
1668,000000	0,099359
1667,000000	0,104816
1666,000000	0,108625
1665,000000	0,108449
1664,000000	0,104810
1663,000000	0,101539
1662,000000	0,102067
1661,000000	0,105598
1660,000000	0,108524
1659,000000	0,109167
1658,000000	0,108747
1657,000000	0,107272
1656,000000	0,101611
1655,000000	0,089692
1654,000000	0,075755
1653,000000	0,068649
1652,000000	0,073443
1651,000000	0,085852
1650,000000	0,096085
1649,000000	0,097990
1648,000000	0,093533
1647,000000	0,089071
1646,000000	0,089086
1645,000000	0,093670
1644,000000	0,099936
1643,000000	0,104700
1642,000000	0,106596
1641,000000	0,106781
1640,000000	0,106951
1639,000000	0,106215
1638,000000	0,101584
1637,000000	0,092781
1636,000000	0,084885
1635,000000	0,083908
1634,000000	0,090275
1633,000000	0,098715
1632,000000	0,104106
1631,000000	0,105491
1630,000000	0,104554
1629,000000	0,102810
1628,000000	0,101209
1627,000000	0,100457
1626,000000	0,100161
1625,000000	0,098947
1624,000000	0,096743
1623,000000	0,095882
1622,000000	0,098381
1621,000000	0,102610
1620,000000	0,104147
1619,000000	0,100308
1618,000000	0,093199
1617,000000	0,088140
1616,000000	0,089055
1615,000000	0,095110
1614,000000	0,101658
1613,000000	0,104652
1612,000000	0,103970
1611,000000	0,102325
1610,000000	0,101662
1609,000000	0,101789
1608,000000	0,102006
1607,000000	0,102320
1606,000000	0,102569
1605,000000	0,101956
1604,000000	0,100373
1603,000000	0,099091
1602,000000	0,099213
1601,000000	0,100321
1600,000000	0,101454
1599,000000	0,102468
1598,000000	0,103422
1597,000000	0,103594
1596,000000	0,102491
1595,000000	0,101193
1594,000000	0,101191
1593,000000	0,102261
1592,000000	0,102863
1591,000000	0,102533
1590,000000	0,102500
1589,000000	0,103615
1588,000000	0,104933
1587,000000	0,105051
1586,000000	0,104009
1585,000000	0,102982
1584,000000	0,102548
1583,000000	0,102182
1582,000000	0,101359
1581,000000	0,100181
1580,000000	0,098488
1579,000000	0,095044
1578,000000	0,088995
1577,000000	0,082396
1576,000000	0,079910
1575,000000	0,084293
1574,000000	0,092425
1573,000000	0,097541
1572,000000	0,096088
1571,000000	0,091188
1570,000000	0,088638
1569,000000	0,090769
1568,000000	0,095112
1567,000000	0,098025
1566,000000	0,098114
1565,000000	0,096591
1564,000000	0,095280
1563,000000	0,093943
1562,000000	0,089534
1561,000000	0,079641
1560,000000	0,067510
1559,000000	0,061231
1558,000000	0,065467
1557,000000	0,075595
1556,000000	0,082986
1555,000000	0,084943
1554,000000	0,085774
1553,000000	0,088822
1552,000000	0,092135
1551,000000	0,093304
1550,000000	0,093918
1549,000000	0,096312
1548,000000	0,098835
1547,000000	0,098016
1546,000000	0,093753
1545,000000	0,089058
1544,000000	0,085427
1543,000000	0,081364
1542,000000	0,075655
1541,000000	0,069923
1540,000000	0,067673
1539,000000	0,071707
1538,000000	0,081564
1537,000000	0,092243
1536,000000	0,097065
1535,000000	0,094099
1534,000000	0,088705
1533,000000	0,087672
1532,000000	0,091632
1531,000000	0,095700
1530,000000	0,096258
1529,000000	0,094102
1528,000000	0,091406
1527,000000	0,089221
1526,000000	0,088186
1525,000000	0,088390
1524,000000	0,087906
1523,000000	0,084579
1522,000000	0,080154
1521,000000	0,079352
1520,000000	0,083523
1519,000000	0,088301
1518,000000	0,089568
1517,000000	0,088782
1516,000000	0,089744
1515,000000	0,092617
1514,000000	0,094360
1513,000000	0,093758
1512,000000	0,092460
1511,000000	0,091231
1510,000000	0,088120
1509,000000	0,081360
1508,000000	0,072576
1507,000000	0,066400
1506,000000	0,067088
1505,000000	0,074991
1504,000000	0,085686
1503,000000	0,093197
1502,000000	0,094849
1501,000000	0,092542
1500,000000	0,089217
1499,000000	0,085581
1498,000000	0,081428
1497,000000	0,078372
1496,000000	0,078825
1495,000000	0,082589
1494,000000	0,086379
1493,000000	0,086962
1492,000000	0,084047
1491,000000	0,080125
1490,000000	0,078207
1489,000000	0,079516
1488,000000	0,082840
1487,000000	0,086169
1486,000000	0,088929
1485,000000	0,091774
1484,000000	0,094481
1483,000000	0,095744
1482,000000	0,095440
1481,000000	0,095194
1480,000000	0,095712
1479,000000	0,095486
1478,000000	0,093457
1477,000000	0,090917
1476,000000	0,089002
1475,000000	0,086380
1474,000000	0,082025
1473,000000	0,078521
1472,000000	0,079667
1471,000000	0,085408
1470,000000	0,091805
1469,000000	0,095532
1468,000000	0,096012
1467,000000	0,093819
1466,000000	0,089936
1465,000000	0,086648
1464,000000	0,086362
1463,000000	0,088893
1462,000000	0,091268
1461,000000	0,090700
1460,000000	0,086316
1459,000000	0,078794
1458,000000	0,070856
1457,000000	0,067179
1456,000000	0,070628
1455,000000	0,078591
1454,000000	0,085323
1453,000000	0,088206
1452,000000	0,089306
1451,000000	0,090646
1450,000000	0,091344
1449,000000	0,090245
1448,000000	0,088503
1447,000000	0,087872
1446,000000	0,088384
1445,000000	0,089214
1444,000000	0,090286
1443,000000	0,091802
1442,000000	0,093364
1441,000000	0,094262
1440,000000	0,093470
1439,000000	0,089638
1438,000000	0,083143
1437,000000	0,078004
1436,000000	0,078678
1435,000000	0,084448
1434,000000	0,089812
1433,000000	0,091333
1432,000000	0,090849
1431,000000	0,090978
1430,000000	0,091216
1429,000000	0,090515
1428,000000	0,090245
1427,000000	0,091463
1426,000000	0,092175
1425,000000	0,090518
1424,000000	0,088387
1423,000000	0,088249
1422,000000	0,088351
1421,000000	0,085190
1420,000000	0,079614
1419,000000	0,076486
1418,000000	0,078225
1417,000000	0,082442
1416,000000	0,085989
1415,000000	0,088205
1414,000000	0,089521
1413,000000	0,089825
1412,000000	0,089342
1411,000000	0,089009
1410,000000	0,089031
1409,000000	0,088577
1408,000000	0,087362
1407,000000	0,085971
1406,000000	0,084626
1405,000000	0,083288
1404,000000	0,082876
1403,000000	0,084267
1402,000000	0,086133
1401,000000	0,085984
1400,000000	0,083598
1399,000000	0,081262
1398,000000	0,080219
1397,000000	0,079287
1396,000000	0,077865
1395,000000	0,077799
1394,000000	0,080484
1393,000000	0,084238
1392,000000	0,086343
1391,000000	0,086323
1390,000000	0,085437
1389,000000	0,084294
1388,000000	0,082958
1387,000000	0,082347
1386,000000	0,083533
1385,000000	0,085825
1384,000000	0,087271
1383,000000	0,087180
1382,000000	0,086677
1381,000000	0,086552
1380,000000	0,086224
1379,000000	0,085120
1378,000000	0,083790
1377,000000	0,083108
1376,000000	0,083140
1375,000000	0,083529
1374,000000	0,084315
1373,000000	0,085651
1372,000000	0,087038
1371,000000	0,087634
1370,000000	0,087412
1369,000000	0,087357
1368,000000	0,088207
1367,000000	0,089215
1366,000000	0,088747
1365,000000	0,086298
1364,000000	0,083289
1363,000000	0,081558
1362,000000	0,081547
1361,000000	0,082393
1360,000000	0,083353
1359,000000	0,084407
1358,000000	0,085592
1357,000000	0,086524
1356,000000	0,086902
1355,000000	0,086958
1354,000000	0,087090
1353,000000	0,087290
1352,000000	0,087244
1351,000000	0,086813
1350,000000	0,086203
1349,000000	0,085826
1348,000000	0,085943
1347,000000	0,086359
1346,000000	0,086646
1345,000000	0,086673
1344,000000	0,086661
1343,000000	0,086573
1342,000000	0,085935
1341,000000	0,084666
1340,000000	0,083601
1339,000000	0,083576
1338,000000	0,084296
1337,000000	0,084804
1336,000000	0,084821
1335,000000	0,084849
1334,000000	0,085040
1333,000000	0,084949
1332,000000	0,084548
1331,000000	0,084453
1330,000000	0,084799
1329,000000	0,084869
1328,000000	0,084318
1327,000000	0,083924
1326,000000	0,084480
1325,000000	0,085377
1324,000000	0,085212
1323,000000	0,083762
1322,000000	0,082413
1321,000000	0,082444
1320,000000	0,083488
1319,000000	0,084193
1318,000000	0,083870
1317,000000	0,082983
1316,000000	0,082301
1315,000000	0,082042
1314,000000	0,081991
1313,000000	0,081991
1312,000000	0,082017
1311,000000	0,081960
1310,000000	0,081643
1309,000000	0,081051
1308,000000	0,080378
1307,000000	0,079834
1306,000000	0,079522
1305,000000	0,079477
1304,000000	0,079617
1303,000000	0,079683
1302,000000	0,079539
1301,000000	0,079491
1300,000000	0,079944
1299,000000	0,080744
1298,000000	0,081180
1297,000000	0,080810
1296,000000	0,079995
1295,000000	0,079443
1294,000000	0,079461
1293,000000	0,079816
1292,000000	0,080082
1291,000000	0,080000
1290,000000	0,079744
1289,000000	0,079821
1288,000000	0,080364
1287,000000	0,080665
1286,000000	0,079938
1285,000000	0,078551
1284,000000	0,077803
1283,000000	0,078241
1282,000000	0,078912
1281,000000	0,078853
1280,000000	0,078487
1279,000000	0,078733
1278,000000	0,079361
1277,000000	0,079167
1276,000000	0,077720
1275,000000	0,076059
1274,000000	0,075390
1273,000000	0,075810
1272,000000	0,076574
1271,000000	0,076996
1270,000000	0,076938
1269,000000	0,076650
1268,000000	0,076220
1267,000000	0,075322
1266,000000	0,073725
1265,000000	0,071921
1264,000000	0,070846
1263,000000	0,070781
1262,000000	0,070944
1261,000000	0,070608
1260,000000	0,070184
1259,000000	0,070502
1258,000000	0,071445
1257,000000	0,072114
1256,000000	0,072125
1255,000000	0,071978
1254,000000	0,072082
1253,000000	0,072223
1252,000000	0,072221
1251,000000	0,072196
1250,000000	0,072091
1249,000000	0,071672
1248,000000	0,071051
1247,000000	0,070635
1246,000000	0,070462
1245,000000	0,070163
1244,000000	0,069701
1243,000000	0,069479
1242,000000	0,069539
1241,000000	0,069242
1240,000000	0,068138
1239,000000	0,066902
1238,000000	0,066788
1237,000000	0,068141
1236,000000	0,069876
1235,000000	0,070634
1234,000000	0,070167
1233,000000	0,069356
1232,000000	0,069010
1231,000000	0,068962
1230,000000	0,068464
1229,000000	0,067237
1228,000000	0,065782
1227,000000	0,064749
1226,000000	0,064371
1225,000000	0,064582
1224,000000	0,065285
1223,000000	0,066244
1222,000000	0,067034
1221,000000	0,067337
1220,000000	0,067199
1219,000000	0,066902
1218,000000	0,066668
1217,000000	0,066489
1216,000000	0,066171
1215,000000	0,065463
1214,000000	0,064299
1213,000000	0,063035
1212,000000	0,062270
1211,000000	0,062292
1210,000000	0,062809
1209,000000	0,063247
1208,000000	0,063181
1207,000000	0,062569
1206,000000	0,061864
1205,000000	0,061730
1204,000000	0,062280
1203,000000	0,062724
1202,000000	0,062253
1201,000000	0,061154
1200,000000	0,060394
1199,000000	0,060239
1198,000000	0,060091
1197,000000	0,059750
1196,000000	0,059802
1195,000000	0,060437
1194,000000	0,060867
1193,000000	0,060481
1192,000000	0,059739
1191,000000	0,059222
1190,000000	0,058665
1189,000000	0,057737
1188,000000	0,057017
1187,000000	0,057178
1186,000000	0,057693
1185,000000	0,057536
1184,000000	0,056829
1183,000000	0,056563
1182,000000	0,056893
1181,000000	0,056935
1180,000000	0,056208
1179,000000	0,055279
1178,000000	0,054953
1177,000000	0,055428
1176,000000	0,056366
1175,000000	0,057202
1174,000000	0,057278
1173,000000	0,056395
1172,000000	0,055268
1171,000000	0,054798
1170,000000	0,055004
1169,000000	0,055225
1168,000000	0,055205
1167,000000	0,055266
1166,000000	0,055307
1165,000000	0,054795
1164,000000	0,053870
1163,000000	0,053371
1162,000000	0,053592
1161,000000	0,053782
1160,000000	0,053241
1159,000000	0,052230
1158,000000	0,051355
1157,000000	0,050669
1156,000000	0,049949
1155,000000	0,049391
1154,000000	0,049411
1153,000000	0,049962
1152,000000	0,050558
1151,000000	0,050872
1150,000000	0,050941
1149,000000	0,050844
1148,000000	0,050527
1147,000000	0,049984
1146,000000	0,049382
1145,000000	0,048914
1144,000000	0,048568
1143,000000	0,048095
1142,000000	0,047365
1141,000000	0,046765
1140,000000	0,046864
1139,000000	0,047713
1138,000000	0,048743
1137,000000	0,049458
1136,000000	0,049896
1135,000000	0,050238
1134,000000	0,050397
1133,000000	0,050300
1132,000000	0,050116
1131,000000	0,049849
1130,000000	0,049067
1129,000000	0,047567
1128,000000	0,045955
1127,000000	0,045063
1126,000000	0,045110
1125,000000	0,045756
1124,000000	0,046582
1123,000000	0,047118
1122,000000	0,046727
1121,000000	0,045262
1120,000000	0,043479
1119,000000	0,042258
1118,000000	0,041718
1117,000000	0,041616
1116,000000	0,042168
1115,000000	0,043630
1114,000000	0,045385
1113,000000	0,046308
1112,000000	0,045973
1111,000000	0,044869
1110,000000	0,043604
1109,000000	0,042517
1108,000000	0,041974
1107,000000	0,042121
1106,000000	0,042150
1105,000000	0,041237
1104,000000	0,039991
1103,000000	0,039709
1102,000000	0,040471
1101,000000	0,041018
1100,000000	0,040658
1099,000000	0,040032
1098,000000	0,039757
1097,000000	0,039556
1096,000000	0,039159
1095,000000	0,039017
1094,000000	0,039503
1093,000000	0,040276
1092,000000	0,040816
1091,000000	0,040912
1090,000000	0,040304
1089,000000	0,038758
1088,000000	0,037020
1087,000000	0,036588
1086,000000	0,037901
1085,000000	0,039623
1084,000000	0,040307
1083,000000	0,039856
1082,000000	0,038860
1081,000000	0,037587
1080,000000	0,036544
1079,000000	0,036815
1078,000000	0,038478
1077,000000	0,039663
1076,000000	0,038707
1075,000000	0,036580
1074,000000	0,035643
1073,000000	0,036445
1072,000000	0,037317
1071,000000	0,037152
1070,000000	0,036813
1069,000000	0,037278
1068,000000	0,038067
1067,000000	0,038283
1066,000000	0,038091
1065,000000	0,038162
1064,000000	0,038330
1063,000000	0,037854
1062,000000	0,036748
1061,000000	0,035857
1060,000000	0,035658
1059,000000	0,035798
1058,000000	0,035950
1057,000000	0,036517
1056,000000	0,037851
1055,000000	0,039227
1054,000000	0,039402
1053,000000	0,038127
1052,000000	0,036582
1051,000000	0,035884
1050,000000	0,035943
1049,000000	0,036079
1048,000000	0,035992
1047,000000	0,035939
1046,000000	0,036038
1045,000000	0,036065
1044,000000	0,036052
1043,000000	0,036445
1042,000000	0,037380
1041,000000	0,038257
1040,000000	0,038364
1039,000000	0,037632
1038,000000	0,036606
1037,000000	0,035903
1036,000000	0,035889
1035,000000	0,036532
1034,000000	0,037426
1033,000000	0,038171
1032,000000	0,038781
1031,000000	0,039440
1030,000000	0,039932
1029,000000	0,039758
1028,000000	0,039072
1027,000000	0,038617
1026,000000	0,038774
1025,000000	0,039208
1024,000000	0,039608
1023,000000	0,040100
1022,000000	0,040765
1021,000000	0,041399
1020,000000	0,041911
1019,000000	0,042419
1018,000000	0,042683
1017,000000	0,042061
1016,000000	0,040550
1015,000000	0,039192
1014,000000	0,038836
1013,000000	0,039073
1012,000000	0,039028
1011,000000	0,038706
1010,000000	0,038817
1009,000000	0,039554
1008,000000	0,040373
1007,000000	0,040849
1006,000000	0,041117
1005,000000	0,041247
1004,000000	0,040991
1003,000000	0,040358
1002,000000	0,039641
1001,000000	0,038998
1000,000000	0,038557
999,000000	0,038781
998,000000	0,039822
997,000000	0,041144
996,000000	0,041912
995,000000	0,041876
994,000000	0,041666
993,000000	0,041756
992,000000	0,041779
991,000000	0,041232
990,000000	0,040371
989,000000	0,039917
988,000000	0,040223
987,000000	0,041017
986,000000	0,041753
985,000000	0,041928
984,000000	0,041333
983,000000	0,040353
982,000000	0,039732
981,000000	0,039806
980,000000	0,040151
979,000000	0,040145
978,000000	0,039736
977,000000	0,039329
976,000000	0,039090
975,000000	0,038881
974,000000	0,038813
973,000000	0,039227
972,000000	0,039987
971,000000	0,040416
970,000000	0,040061
969,000000	0,039238
968,000000	0,038653
967,000000	0,038565
966,000000	0,038641
965,000000	0,038680
964,000000	0,038956
963,000000	0,039578
962,000000	0,040072
961,000000	0,040032
960,000000	0,039804
959,000000	0,040010
958,000000	0,040560
957,000000	0,040753
956,000000	0,040141
955,000000	0,038861
954,000000	0,037381
953,000000	0,036262
952,000000	0,036002
951,000000	0,036560
950,000000	0,037112
949,000000	0,036809
948,000000	0,035800
947,000000	0,034999
946,000000	0,034898
945,000000	0,035187
944,000000	0,035577
943,000000	0,036225
942,000000	0,037157
941,000000	0,037930
940,000000	0,038145
939,000000	0,037882
938,000000	0,037249
937,000000	0,036023
936,000000	0,034345
935,000000	0,033246
934,000000	0,033713
933,000000	0,035396
932,000000	0,036871
931,000000	0,037148
930,000000	0,036379
929,000000	0,035243
928,000000	0,034277
927,000000	0,033780
926,000000	0,033766
925,000000	0,033843
924,000000	0,033533
923,000000	0,032924
922,000000	0,032742
921,000000	0,033459
920,000000	0,034615
919,000000	0,035365
918,000000	0,035264
917,000000	0,034466
916,000000	0,033319
915,000000	0,032037
914,000000	0,030815
913,000000	0,030075
912,000000	0,030272
911,000000	0,031323
910,000000	0,032520
909,000000	0,033155
908,000000	0,033188
907,000000	0,033131
906,000000	0,033244
905,000000	0,033205
904,000000	0,032708
903,000000	0,031973
902,000000	0,031442
901,000000	0,031226
900,000000	0,031027
899,000000	0,030534
898,000000	0,029745
897,000000	0,029042
896,000000	0,029046
895,000000	0,030095
894,000000	0,031751
893,000000	0,033023
892,000000	0,033302
891,000000	0,032956
890,000000	0,032632
889,000000	0,032334
888,000000	0,031653
887,000000	0,030607
886,000000	0,029641
885,000000	0,028924
884,000000	0,028295
883,000000	0,027840
882,000000	0,027899
881,000000	0,028508
880,000000	0,029164
879,000000	0,029311
878,000000	0,028993
877,000000	0,028683
876,000000	0,028624
875,000000	0,028582
874,000000	0,028218
873,000000	0,027598
872,000000	0,027198
871,000000	0,027374
870,000000	0,027881
869,000000	0,028093
868,000000	0,027842
867,000000	0,027715
866,000000	0,028219
865,000000	0,029111
864,000000	0,029832
863,000000	0,030287
862,000000	0,030769
861,000000	0,031134
860,000000	0,030763
859,000000	0,029725
858,000000	0,028985
857,000000	0,029191
856,000000	0,029901
855,000000	0,030346
854,000000	0,030309
853,000000	0,029995
852,000000	0,029513
851,000000	0,028794
850,000000	0,027954
849,000000	0,027350
848,000000	0,027318
847,000000	0,027910
846,000000	0,028765
845,000000	0,029141
844,000000	0,028456
843,000000	0,026921
842,000000	0,025638
841,000000	0,025630
840,000000	0,026726
839,000000	0,027720
838,000000	0,027660
837,000000	0,026750
836,000000	0,025985
835,000000	0,025957
834,000000	0,026281
833,000000	0,026244
832,000000	0,025772
831,000000	0,025382
830,000000	0,025485
829,000000	0,025843
828,000000	0,025912
827,000000	0,025658
826,000000	0,025471
825,000000	0,025455
824,000000	0,025259
823,000000	0,024575
822,000000	0,023451
821,000000	0,022196
820,000000	0,021373
819,000000	0,021709
818,000000	0,023743
817,000000	0,026616
816,000000	0,028390
815,000000	0,028067
814,000000	0,026518
813,000000	0,025409
812,000000	0,025397
811,000000	0,025837
810,000000	0,026061
809,000000	0,026136
808,000000	0,026317
807,000000	0,026467
806,000000	0,026157
805,000000	0,025438
804,000000	0,024774
803,000000	0,024362
802,000000	0,024115
801,000000	0,023989
800,000000	0,024189
799,000000	0,024846
798,000000	0,025579
797,000000	0,025664
796,000000	0,024803
795,000000	0,023632
794,000000	0,023089
793,000000	0,023176
792,000000	0,023144
791,000000	0,022720
790,000000	0,022319
789,000000	0,022292
788,000000	0,022483
787,000000	0,022756
786,000000	0,023559
785,000000	0,025227
784,000000	0,026968
783,000000	0,027431
782,000000	0,026327
781,000000	0,024876
780,000000	0,024302
779,000000	0,024515
778,000000	0,024845
777,000000	0,025105
776,000000	0,025414
775,000000	0,025661
774,000000	0,025659
773,000000	0,025556
772,000000	0,025650
771,000000	0,025948
770,000000	0,026072
769,000000	0,025719
768,000000	0,025072
767,000000	0,024604
766,000000	0,024638
765,000000	0,025063
764,000000	0,025347
763,000000	0,025109
762,000000	0,024619
761,000000	0,024444
760,000000	0,024730
759,000000	0,025073
758,000000	0,025265
757,000000	0,025580
756,000000	0,026074
755,000000	0,026217
754,000000	0,025669
753,000000	0,024887
752,000000	0,024378
751,000000	0,024035
750,000000	0,023612
749,000000	0,023317
748,000000	0,023441
747,000000	0,023819
746,000000	0,023982
745,000000	0,023774
744,000000	0,023435
743,000000	0,023070
742,000000	0,022532
741,000000	0,021956
740,000000	0,021795
739,000000	0,022118
738,000000	0,022500
737,000000	0,022783
736,000000	0,023283
735,000000	0,024121
734,000000	0,024889
733,000000	0,024986
732,000000	0,024264
731,000000	0,023249
730,000000	0,022675
729,000000	0,022743
728,000000	0,023036
727,000000	0,023078
726,000000	0,022817
725,000000	0,022596
724,000000	0,022588
723,000000	0,022426
722,000000	0,021820
721,000000	0,021016
720,000000	0,020295
719,000000	0,019618
718,000000	0,018956
717,000000	0,018632
716,000000	0,019062
715,000000	0,020164
714,000000	0,021379
713,000000	0,022231
712,000000	0,022444
711,000000	0,021908
710,000000	0,020975
709,000000	0,020379
708,000000	0,020647
707,000000	0,021405
706,000000	0,021770
705,000000	0,021670
704,000000	0,021750
703,000000	0,022079
702,000000	0,021995
701,000000	0,021340
700,000000	0,020578
699,000000	0,020276
698,000000	0,020692
697,000000	0,021545
696,000000	0,022315
695,000000	0,022251
694,000000	0,020837
693,000000	0,018656
692,000000	0,016953
691,000000	0,016203
690,000000	0,015888
689,000000	0,015566
688,000000	0,015475
687,000000	0,015788
686,000000	0,016096
685,000000	0,016201
684,000000	0,016559
683,000000	0,017296
682,000000	0,017574
681,000000	0,016744
680,000000	0,015440
679,000000	0,014846
678,000000	0,015169
677,000000	0,015720
676,000000	0,016143
675,000000	0,016504
674,000000	0,016761
673,000000	0,016758
672,000000	0,016349
671,000000	0,015191
670,000000	0,013155
669,000000	0,011198
668,000000	0,010944
667,000000	0,012829
666,000000	0,015084
665,000000	0,015705
664,000000	0,015061
663,000000	0,015085
662,000000	0,016299
661,000000	0,017324
660,000000	0,017287
659,000000	0,016754
658,000000	0,016274
657,000000	0,015640
656,000000	0,014901
655,000000	0,014786
654,000000	0,015493
653,000000	0,016024
652,000000	0,015645
651,000000	0,014956
650,000000	0,014783
649,000000	0,014990
648,000000	0,015091
647,000000	0,015169
646,000000	0,015461
645,000000	0,015771
644,000000	0,016005
643,000000	0,016654
642,000000	0,017734
641,000000	0,018169
640,000000	0,017243
639,000000	0,015908
638,000000	0,015450
637,000000	0,015499
636,000000	0,014919
635,000000	0,013669
634,000000	0,012807
633,000000	0,012887
632,000000	0,013487
631,000000	0,014335
630,000000	0,015378
629,000000	0,015954
628,000000	0,015099
627,000000	0,012872
626,000000	0,011122
625,000000	0,011271
624,000000	0,012420
623,000000	0,013360
622,000000	0,013881
621,000000	0,014337
620,000000	0,014490
619,000000	0,013713
618,000000	0,012283
617,000000	0,011458
616,000000	0,011935
615,000000	0,012853
614,000000	0,013229
613,000000	0,013176
612,000000	0,013193
611,000000	0,013272
610,000000	0,012867
609,000000	0,011785
608,000000	0,010625
607,000000	0,010188
606,000000	0,010660
605,000000	0,011623
604,000000	0,012600
603,000000	0,013174
602,000000	0,012967
601,000000	0,011916
600,000000	0,010623
599,000000	0,010071
598,000000	0,010591
597,000000	0,011392
596,000000	0,011611
595,000000	0,011227
594,000000	0,010936
593,000000	0,011067
592,000000	0,011174
591,000000	0,010895
590,000000	0,010479
589,000000	0,010286
588,000000	0,010354
587,000000	0,010614
586,000000	0,011077
585,000000	0,011677
584,000000	0,011900
583,000000	0,011215
582,000000	0,009936
581,000000	0,009081
580,000000	0,009214
579,000000	0,009787
578,000000	0,009857
577,000000	0,009221
576,000000	0,008424
575,000000	0,007921
574,000000	0,007765
573,000000	0,007870
572,000000	0,008130
571,000000	0,008316
570,000000	0,008216
569,000000	0,008017
568,000000	0,008157
567,000000	0,008581
566,000000	0,008605
565,000000	0,007798
564,000000	0,006721
563,000000	0,006426
562,000000	0,007026
561,000000	0,007651
560,000000	0,007919
559,000000	0,007999
558,000000	0,008134
557,000000	0,008554
556,000000	0,008883
555,000000	0,008857
554,000000	0,009004
553,000000	0,009573
552,000000	0,009964
551,000000	0,009662
550,000000	0,008941
549,000000	0,008477
548,000000	0,008489
547,000000	0,008577
546,000000	0,008547
545,000000	0,008764
544,000000	0,009120
543,000000	0,009171
542,000000	0,008984
541,000000	0,008699
540,000000	0,008716
539,000000	0,009433
538,000000	0,010106
537,000000	0,009937
536,000000	0,009062
535,000000	0,008060
534,000000	0,007258
533,000000	0,006669
532,000000	0,006257
531,000000	0,005999
530,000000	0,005846
529,000000	0,005767
528,000000	0,005875
527,000000	0,006300
526,000000	0,006837
525,000000	0,006924
524,000000	0,006247
523,000000	0,005188
522,000000	0,004435
521,000000	0,004270
520,000000	0,004458
519,000000	0,004789
518,000000	0,005339
517,000000	0,006035
516,000000	0,006622
515,000000	0,006897
514,000000	0,006589
513,000000	0,005676
512,000000	0,004773
511,000000	0,004601
510,000000	0,005181
509,000000	0,005847
508,000000	0,005749
507,000000	0,004887
506,000000	0,004154
505,000000	0,003876
504,000000	0,003609
503,000000	0,003281
502,000000	0,003295
501,000000	0,003836
500,000000	0,004258
499,000000	0,004043
498,000000	0,003540
497,000000	0,003513
496,000000	0,004251
495,000000	0,005147
494,000000	0,006121
493,000000	0,007039
492,000000	0,006919
491,000000	0,005375
490,000000	0,003566
489,000000	0,002776
488,000000	0,003644
487,000000	0,004627
486,000000	0,004366
485,000000	0,003702
484,000000	0,003860
483,000000	0,004766
482,000000	0,004887
481,000000	0,003978
480,000000	0,002954
479,000000	0,002226
478,000000	0,001635
477,000000	0,000693
476,000000	0,002316
475,000000	0,004251
474,000000	0,004183
473,000000	0,002666
472,000000	0,001733
471,000000	0,002112
470,000000	0,002498
469,000000	0,002181
468,000000	0,002030
467,000000	0,002403
466,000000	0,002667
465,000000	0,003199
464,000000	0,003663
463,000000	0,003967
462,000000	0,004092
461,000000	0,003114
460,000000	0,001329
459,000000	0,000465
458,000000	0,000889
457,000000	0,000506
456,000000	0,000202
455,000000	0,000666
454,000000	0,001407
453,000000	0,002000
452,000000	0,002666
451,000000	0,003405
450,000000	0,003848
449,000000	0,003397
448,000000	0,002208
447,000000	0,001634
446,000000	0,002234
445,000000	0,003130
444,000000	0,003732
443,000000	0,003507
442,000000	0,002350
441,000000	0,001419
440,000000	0,001670
439,000000	0,000385
438,000000	0,002359
437,000000	0,004211
436,000000	0,004884
435,000000	0,005042
434,000000	0,005167
433,000000	0,004933
432,000000	0,004280
431,000000	0,003808
430,000000	0,003843
429,000000	0,003308
428,000000	0,002265
427,000000	0,001591
426,000000	0,001959
425,000000	0,002199
424,000000	0,001195
423,000000	0,000449
422,000000	0,000980
421,000000	0,002150
420,000000	0,002034
419,000000	0,001033
418,000000	0,000643
417,000000	0,000809
416,000000	0,002270
415,000000	0,002727
414,000000	0,002718
413,000000	0,002817
412,000000	0,002469
411,000000	0,001870
410,000000	0,000948
409,000000	0,000839
408,000000	0,001545
407,000000	0,001771
406,000000	0,001177
405,000000	0,000375
404,000000	0,000608
403,000000	0,001490
402,000000	0,001335
401,000000	0,000594
400,000000	0,000886
399,000000	0,001569
398,000000	0,002100
397,000000	0,003048
396,000000	0,002702
395,000000	0,000984
394,000000	0,001643
393,000000	0,002662
392,000000	0,003284
391,000000	0,003114
390,000000	0,001838
389,000000	0,000951
388,000000	0,001263
387,000000	0,001414
386,000000	0,000865
385,000000	0,001294
384,000000	0,002351
383,000000	0,001057
382,000000	0,001492
381,000000	0,002486
380,000000	0,001814
379,000000	0,000589
378,000000	0,000792
377,000000	0,001501
376,000000	0,001444
375,000000	0,001077
374,000000	0,001714
373,000000	0,001840
372,000000	0,001858
371,000000	0,001905
370,000000	0,000535
369,000000	0,001049
368,000000	0,000526
367,000000	0,000905
366,000000	0,001956
365,000000	0,002627
364,000000	0,002245
363,000000	0,001654
362,000000	0,002977
361,000000	0,004805
360,000000	0,004523
359,000000	0,001758
358,000000	0,001061
357,000000	0,001102
356,000000	0,001198
355,000000	0,001722
354,000000	0,000680
353,000000	0,001529
352,000000	0,002571
351,000000	0,002623
350,000000	0,003190
349,000000	0,003502
348,000000	0,002866
347,000000	0,001842
346,000000	0,000977
345,000000	0,001077
344,000000	0,001661
343,000000	0,002550
342,000000	0,003454
341,000000	0,003026
340,000000	0,002296
339,000000	0,003487
338,000000	0,002678
337,000000	0,000442
336,000000	0,002778
335,000000	0,002419
334,000000	0,000830
333,000000	0,001247
332,000000	0,001638
331,000000	0,001183
330,000000	0,002123
329,000000	0,000853
328,000000	0,002893
327,000000	0,004814
326,000000	0,003701
325,000000	0,002891
324,000000	0,005377
323,000000	0,006540
322,000000	0,005148
321,000000	0,002696
320,000000	0,003256
319,000000	0,003448
318,000000	0,002052
317,000000	0,000267
316,000000	0,001548
315,000000	0,001460
314,000000	0,002151
313,000000	0,002980
312,000000	0,001077
311,000000	0,001717
310,000000	0,002903
309,000000	0,002536
308,000000	0,002034
307,000000	0,000979
306,000000	0,001453
305,000000	0,001443
304,000000	0,001764
303,000000	0,002234
302,000000	0,001382
301,000000	0,001764
300,000000	0,000529
299,000000	0,001926
298,000000	0,002973
297,000000	0,002743
296,000000	0,001888
295,000000	0,000838
294,000000	0,002337
293,000000	0,001677
292,000000	0,001218
291,000000	0,001909
290,000000	0,001810
289,000000	0,001457
288,000000	0,001448
287,000000	0,001803
286,000000	0,001182
285,000000	0,000953
284,000000	0,001432
283,000000	0,001080
282,000000	0,000602
281,000000	0,000570
280,000000	0,002488
279,000000	0,003201
278,000000	0,003114
277,000000	0,002529
276,000000	0,001716
275,000000	0,002637
274,000000	0,002287
273,000000	0,002105
272,000000	0,002160
271,000000	0,001004
270,000000	0,002033
269,000000	0,003462
268,000000	0,003124
267,000000	0,001792
266,000000	0,002710
265,000000	0,002927
264,000000	0,001400
263,000000	0,002949
262,000000	0,003321
261,000000	0,001957
260,000000	0,003347
259,000000	0,003366
258,000000	0,001867
257,000000	0,001694
256,000000	0,002294
255,000000	0,000833
254,000000	0,001719
253,000000	0,002627
252,000000	0,001247
251,000000	0,001598
250,000000	0,002709
249,000000	0,002102
248,000000	0,001138
247,000000	0,001891
246,000000	0,001722
245,000000	0,000580
244,000000	0,001259
243,000000	0,001665
242,000000	0,001929
241,000000	0,002150
240,000000	0,001923
239,000000	0,001929
238,000000	0,002203
237,000000	0,002044
236,000000	0,001119
235,000000	0,000630
234,000000	0,001274
233,000000	0,000844
232,000000	0,000634
231,000000	0,001660
230,000000	0,001647
229,000000	0,001238
228,000000	0,002393
227,000000	0,002505
226,000000	0,002619
225,000000	0,003442
224,000000	0,003241
223,000000	0,002518
222,000000	0,001642
221,000000	0,001157
220,000000	0,002134
219,000000	0,002796
218,000000	0,000956
217,000000	0,002150
216,000000	0,003480
215,000000	0,001975
214,000000	0,000646
213,000000	0,001519
212,000000	0,001411
211,000000	0,003384
210,000000	0,003344
209,000000	0,001382
208,000000	0,000075
207,000000	0,000732
206,000000	0,000776
205,000000	0,001418
204,000000	0,001304
203,000000	0,000714
202,000000	0,002544
201,000000	0,003182
200,000000	0,002145
