PE IR       SUBTECH     SPECTRUM    ASCII       PEDS        4.00        
   -1
Water-vapor.ASC
25/04/22
09:10:29.00
25/04/22
09:10:29.00
Praktikum
Sample 012 By Praktikum date Dienstag, April 22 2025
200,000000
#HDR
-1
-1
#GR
cm-1
EGY
1.0
0.0
4000,000000
-1,000000
3801
8
76,562898
0,000850
#DATA
4000,000000	55,263495
3999,000000	55,277896
3998,000000	55,277162
3997,000000	55,268043
3996,000000	55,264194
3995,000000	55,272573
3994,000000	55,286711
3993,000000	55,297916
3992,000000	55,309741
3991,000000	55,335699
3990,000000	55,382157
3989,000000	55,439112
3988,000000	55,489737
3987,000000	55,524721
3986,000000	55,544784
3985,000000	55,554710
3984,000000	55,560776
3983,000000	55,571527
3982,000000	55,593601
3981,000000	55,623580
3980,000000	55,647309
3979,000000	55,650048
3978,000000	55,628822
3977,000000	55,595463
3976,000000	55,568714
3975,000000	55,562980
3974,000000	55,580659
3973,000000	55,613483
3972,000000	55,651696
3971,000000	55,692827
3970,000000	55,742105
3969,000000	55,803983
3968,000000	55,871511
3967,000000	55,923009
3966,000000	55,932556
3965,000000	55,890941
3964,000000	55,821190
3963,000000	55,767904
3962,000000	55,763425
3961,000000	55,803666
3960,000000	55,859423
3959,000000	55,908152
3958,000000	55,949476
3957,000000	55,990812
3956,000000	56,026256
3955,000000	56,032475
3954,000000	55,979932
3953,000000	55,848600
3952,000000	55,646417
3951,000000	55,425345
3950,000000	55,271635
3949,000000	55,253957
3948,000000	55,355905
3947,000000	55,463182
3946,000000	55,452511
3945,000000	55,314569
3944,000000	55,184261
3943,000000	55,222546
3942,000000	55,461317
3941,000000	55,786947
3940,000000	56,069743
3939,000000	56,265795
3938,000000	56,375916
3937,000000	56,353805
3936,000000	56,125130
3935,000000	55,704762
3934,000000	55,246968
3933,000000	54,954400
3932,000000	54,939782
3931,000000	55,169080
3930,000000	55,493727
3929,000000	55,726797
3928,000000	55,750852
3927,000000	55,603996
3926,000000	55,449054
3925,000000	55,424624
3924,000000	55,512070
3923,000000	55,564968
3922,000000	55,453552
3921,000000	55,164805
3920,000000	54,798383
3919,000000	54,515510
3918,000000	54,484861
3917,000000	54,794994
3916,000000	55,374653
3915,000000	56,021661
3914,000000	56,544572
3913,000000	56,887809
3912,000000	57,103535
3911,000000	57,221260
3910,000000	57,161154
3909,000000	56,763987
3908,000000	55,903581
3907,000000	54,614617
3906,000000	53,147926
3905,000000	51,865494
3904,000000	51,017398
3903,000000	50,619857
3902,000000	50,575405
3901,000000	50,878727
3900,000000	51,630652
3899,000000	52,822754
3898,000000	54,192169
3897,000000	55,322669
3896,000000	55,865619
3895,000000	55,690217
3894,000000	54,960860
3893,000000	54,148812
3892,000000	53,804043
3891,000000	54,086526
3890,000000	54,516762
3889,000000	54,414403
3888,000000	53,637345
3887,000000	52,786230
3886,000000	52,549913
3885,000000	52,963963
3884,000000	53,448992
3883,000000	53,525646
3882,000000	53,340210
3881,000000	53,440442
3880,000000	54,115603
3879,000000	55,050669
3878,000000	55,634521
3877,000000	55,566203
3876,000000	55,088245
3875,000000	54,568560
3874,000000	53,991318
3873,000000	53,062784
3872,000000	51,833767
3871,000000	50,932857
3870,000000	50,943193
3869,000000	51,687218
3868,000000	52,398166
3867,000000	52,571286
3866,000000	52,418567
3865,000000	52,464480
3864,000000	52,936307
3863,000000	53,695255
3862,000000	54,541605
3861,000000	55,346556
3860,000000	55,880638
3859,000000	55,679492
3858,000000	54,222499
3857,000000	51,362026
3856,000000	47,720092
3855,000000	44,623329
3854,000000	43,393032
3853,000000	44,471732
3852,000000	47,195359
3851,000000	50,400261
3850,000000	53,214234
3849,000000	55,279868
3848,000000	56,505090
3847,000000	56,887529
3846,000000	56,591981
3845,000000	55,951538
3844,000000	55,239922
3843,000000	54,464245
3842,000000	53,443038
3841,000000	52,097856
3840,000000	50,680216
3839,000000	49,696227
3838,000000	49,569138
3837,000000	50,293664
3836,000000	51,433191
3835,000000	52,490515
3834,000000	53,287094
3833,000000	53,981106
3832,000000	54,757846
3831,000000	55,573170
3830,000000	56,198895
3829,000000	56,496679
3828,000000	56,581364
3827,000000	56,634496
3826,000000	56,535366
3825,000000	55,828070
3824,000000	54,275640
3823,000000	52,420406
3822,000000	51,283599
3821,000000	51,340158
3820,000000	51,954604
3819,000000	52,127320
3818,000000	51,676451
3817,000000	51,425403
3816,000000	52,204938
3815,000000	53,951502
3814,000000	55,912645
3813,000000	57,409736
3812,000000	58,162813
3811,000000	58,055350
3810,000000	57,069595
3809,000000	55,592121
3808,000000	54,436538
3807,000000	54,171507
3806,000000	54,432831
3805,000000	54,234134
3804,000000	53,099977
3803,000000	51,713352
3802,000000	51,222505
3801,000000	52,010790
3800,000000	53,404400
3799,000000	54,538777
3798,000000	55,241574
3797,000000	55,915248
3796,000000	56,846949
3795,000000	57,893332
3794,000000	58,761802
3793,000000	59,337269
3792,000000	59,681833
3791,000000	59,878808
3790,000000	59,958057
3789,000000	59,905801
3788,000000	59,707382
3787,000000	59,425120
3786,000000	59,209093
3785,000000	59,159180
3784,000000	59,159014
3783,000000	58,953819
3782,000000	58,450968
3781,000000	57,893454
3780,000000	57,674703
3779,000000	57,977636
3778,000000	58,633994
3777,000000	59,316585
3776,000000	59,797728
3775,000000	59,976178
3774,000000	59,740028
3773,000000	58,996558
3772,000000	57,924065
3771,000000	57,019108
3770,000000	56,683370
3769,000000	56,820127
3768,000000	57,032108
3767,000000	57,188595
3766,000000	57,521080
3765,000000	58,118832
3764,000000	58,611172
3763,000000	58,559589
3762,000000	57,971609
3761,000000	57,253431
3760,000000	56,791616
3759,000000	56,725853
3758,000000	56,947270
3757,000000	57,068092
3756,000000	56,511754
3755,000000	54,929645
3754,000000	52,560934
3753,000000	50,094585
3752,000000	48,255330
3751,000000	47,543556
3750,000000	48,020755
3749,000000	49,019703
3748,000000	49,351613
3747,000000	48,370144
3746,000000	46,874250
3745,000000	46,494524
3744,000000	48,028319
3743,000000	50,708101
3742,000000	53,126671
3741,000000	54,424076
3740,000000	54,472576
3739,000000	53,464772
3738,000000	51,827205
3737,000000	50,265616
3736,000000	49,379589
3735,000000	49,245082
3734,000000	49,633123
3733,000000	50,505754
3732,000000	51,931557
3731,000000	53,603996
3730,000000	54,856969
3729,000000	55,306967
3728,000000	55,209633
3727,000000	55,067459
3726,000000	55,098682
3725,000000	55,222463
3724,000000	55,386274
3723,000000	55,687357
3722,000000	56,207048
3721,000000	56,893434
3720,000000	57,640498
3719,000000	58,381416
3718,000000	59,015155
3717,000000	59,267421
3716,000000	58,757629
3715,000000	57,342459
3714,000000	55,402147
3713,000000	53,692339
3712,000000	52,847510
3711,000000	53,018769
3710,000000	53,963098
3709,000000	55,324249
3708,000000	56,754219
3707,000000	57,903441
3706,000000	58,471381
3705,000000	58,375145
3704,000000	57,843777
3703,000000	57,328748
3702,000000	57,250704
3701,000000	57,709999
3700,000000	58,433140
3699,000000	59,053820
3698,000000	59,443057
3697,000000	59,678611
3696,000000	59,737099
3695,000000	59,392630
3694,000000	58,463495
3693,000000	56,998947
3692,000000	55,209381
3691,000000	53,438025
3690,000000	52,257220
3689,000000	52,299198
3688,000000	53,709908
3687,000000	55,884936
3686,000000	57,955762
3685,000000	59,442415
3684,000000	60,321489
3683,000000	60,673357
3682,000000	60,538303
3681,000000	59,956348
3680,000000	58,842661
3679,000000	56,942314
3678,000000	54,340644
3677,000000	51,948984
3676,000000	50,974446
3675,000000	51,638581
3674,000000	52,808940
3673,000000	53,213039
3672,000000	52,781498
3671,000000	52,547229
3670,000000	53,395174
3669,000000	55,255422
3668,000000	57,440846
3667,000000	59,360883
3666,000000	60,783787
3665,000000	61,702237
3664,000000	62,206557
3663,000000	62,447717
3662,000000	62,523709
3661,000000	62,338398
3660,000000	61,667180
3659,000000	60,469348
3658,000000	59,155715
3657,000000	58,391074
3656,000000	58,460887
3655,000000	58,837434
3654,000000	58,523698
3653,000000	56,968866
3652,000000	54,577889
3651,000000	52,344408
3650,000000	51,114976
3649,000000	51,218924
3648,000000	52,560379
3647,000000	54,739582
3646,000000	57,119456
3645,000000	59,080207
3644,000000	60,370443
3643,000000	61,130770
3642,000000	61,580018
3641,000000	61,800811
3640,000000	61,832815
3639,000000	61,766920
3638,000000	61,627450
3637,000000	61,324385
3636,000000	60,846206
3635,000000	60,327903
3634,000000	59,720794
3633,000000	58,563415
3632,000000	56,448191
3631,000000	53,796143
3630,000000	51,843476
3629,000000	51,645429
3628,000000	53,163554
3627,000000	55,447806
3626,000000	57,528436
3625,000000	58,946010
3624,000000	59,564933
3623,000000	59,319266
3622,000000	58,334661
3621,000000	57,118499
3620,000000	56,349629
3619,000000	56,399125
3618,000000	57,068214
3617,000000	57,809596
3616,000000	58,199051
3615,000000	58,214310
3614,000000	58,093590
3613,000000	57,980197
3612,000000	57,779216
3611,000000	57,398028
3610,000000	57,034131
3609,000000	57,080525
3608,000000	57,726712
3607,000000	58,757157
3606,000000	59,757352
3605,000000	60,434393
3604,000000	60,716740
3603,000000	60,683331
3602,000000	60,499477
3601,000000	60,345088
3600,000000	60,285157
3599,000000	60,222041
3598,000000	60,036287
3597,000000	59,760655
3596,000000	59,575660
3595,000000	59,642346
3594,000000	59,948286
3593,000000	60,260221
3592,000000	60,214892
3591,000000	59,563227
3590,000000	58,455938
3589,000000	57,450287
3588,000000	57,128322
3587,000000	57,664219
3586,000000	58,769327
3585,000000	59,992687
3584,000000	61,011415
3583,000000	61,706494
3582,000000	62,107097
3581,000000	62,318733
3580,000000	62,445708
3579,000000	62,534706
3578,000000	62,590953
3577,000000	62,631944
3576,000000	62,692721
3575,000000	62,783741
3574,000000	62,865620
3573,000000	62,832870
3572,000000	62,497549
3571,000000	61,672946
3570,000000	60,394761
3569,000000	59,061148
3568,000000	58,232915
3567,000000	58,232398
3566,000000	58,934940
3565,000000	59,939204
3564,000000	60,875809
3563,000000	61,575879
3562,000000	62,047215
3561,000000	62,380797
3560,000000	62,662005
3559,000000	62,916255
3558,000000	63,109431
3557,000000	63,184593
3556,000000	63,103250
3555,000000	62,882601
3554,000000	62,625683
3553,000000	62,481967
3552,000000	62,513499
3551,000000	62,601215
3550,000000	62,540183
3549,000000	62,250391
3548,000000	61,861384
3547,000000	61,590667
3546,000000	61,574871
3545,000000	61,815642
3544,000000	62,223071
3543,000000	62,672965
3542,000000	63,053541
3541,000000	63,298401
3540,000000	63,390616
3539,000000	63,351967
3538,000000	63,248531
3537,000000	63,181744
3536,000000	63,219833
3535,000000	63,329258
3534,000000	63,403508
3533,000000	63,365002
3532,000000	63,211855
3531,000000	62,982316
3530,000000	62,724925
3529,000000	62,504536
3528,000000	62,375389
3527,000000	62,326044
3526,000000	62,299245
3525,000000	62,284719
3524,000000	62,347174
3523,000000	62,532129
3522,000000	62,787967
3521,000000	63,018125
3520,000000	63,181137
3519,000000	63,299055
3518,000000	63,394459
3517,000000	63,462480
3516,000000	63,494423
3515,000000	63,487702
3514,000000	63,428869
3513,000000	63,299903
3512,000000	63,117507
3511,000000	62,952266
3510,000000	62,886561
3509,000000	62,940123
3508,000000	63,032333
3507,000000	63,035439
3506,000000	62,888055
3505,000000	62,662408
3504,000000	62,507516
3503,000000	62,521924
3502,000000	62,686459
3501,000000	62,903280
3500,000000	63,077652
3499,000000	63,165228
3498,000000	63,180235
3497,000000	63,176441
3496,000000	63,203789
3495,000000	63,268553
3494,000000	63,337738
3493,000000	63,378813
3492,000000	63,379091
3491,000000	63,336002
3490,000000	63,258937
3489,000000	63,185118
3488,000000	63,159507
3487,000000	63,181778
3486,000000	63,194663
3485,000000	63,144267
3484,000000	63,040421
3483,000000	62,947849
3482,000000	62,928445
3481,000000	62,999951
3480,000000	63,130647
3479,000000	63,259871
3478,000000	63,337846
3477,000000	63,360656
3476,000000	63,364323
3475,000000	63,381368
3474,000000	63,413748
3473,000000	63,447185
3472,000000	63,471821
3471,000000	63,480915
3470,000000	63,468709
3469,000000	63,443307
3468,000000	63,427474
3467,000000	63,432837
3466,000000	63,443846
3465,000000	63,439142
3464,000000	63,420820
3463,000000	63,412178
3462,000000	63,432409
3461,000000	63,481850
3460,000000	63,545618
3459,000000	63,605039
3458,000000	63,650306
3457,000000	63,685894
3456,000000	63,720301
3455,000000	63,752683
3454,000000	63,777661
3453,000000	63,793576
3452,000000	63,787785
3451,000000	63,721671
3450,000000	63,565840
3449,000000	63,361215
3448,000000	63,213459
3447,000000	63,199220
3446,000000	63,292758
3445,000000	63,408210
3444,000000	63,496329
3443,000000	63,573400
3442,000000	63,666114
3441,000000	63,766045
3440,000000	63,847808
3439,000000	63,904678
3438,000000	63,948806
3437,000000	63,989575
3436,000000	64,026626
3435,000000	64,058426
3434,000000	64,086719
3433,000000	64,114197
3432,000000	64,144162
3431,000000	64,181295
3430,000000	64,228125
3429,000000	64,282000
3428,000000	64,337861
3427,000000	64,390185
3426,000000	64,428036
3425,000000	64,433106
3424,000000	64,393706
3423,000000	64,326042
3422,000000	64,275086
3421,000000	64,285580
3420,000000	64,368095
3419,000000	64,493332
3418,000000	64,617898
3417,000000	64,713816
3416,000000	64,777110
3415,000000	64,818007
3414,000000	64,848575
3413,000000	64,876478
3412,000000	64,903984
3411,000000	64,930110
3410,000000	64,953914
3409,000000	64,975878
3408,000000	64,996335
3407,000000	65,013383
3406,000000	65,023920
3405,000000	65,027304
3404,000000	65,028258
3403,000000	65,034785
3402,000000	65,050096
3401,000000	65,067403
3400,000000	65,078188
3399,000000	65,086880
3398,000000	65,108822
3397,000000	65,147527
3396,000000	65,183030
3395,000000	65,195602
3394,000000	65,196925
3393,000000	65,222828
3392,000000	65,293149
3391,000000	65,390430
3390,000000	65,480601
3389,000000	65,542379
3388,000000	65,572971
3387,000000	65,580831
3386,000000	65,583363
3385,000000	65,601798
3384,000000	65,644889
3383,000000	65,700640
3382,000000	65,750915
3381,000000	65,789990
3380,000000	65,823179
3379,000000	65,853787
3378,000000	65,880746
3377,000000	65,905360
3376,000000	65,931357
3375,000000	65,958543
3374,000000	65,982027
3373,000000	65,997026
3372,000000	66,000460
3371,000000	65,989955
3370,000000	65,966887
3369,000000	65,939666
3368,000000	65,920624
3367,000000	65,919290
3366,000000	65,938446
3365,000000	65,973138
3364,000000	66,012920
3363,000000	66,049359
3362,000000	66,083132
3361,000000	66,119584
3360,000000	66,156800
3359,000000	66,185155
3358,000000	66,201561
3357,000000	66,216841
3356,000000	66,243354
3355,000000	66,280484
3354,000000	66,317809
3353,000000	66,348368
3352,000000	66,373452
3351,000000	66,397414
3350,000000	66,423182
3349,000000	66,451452
3348,000000	66,480305
3347,000000	66,506072
3346,000000	66,526613
3345,000000	66,542947
3344,000000	66,557016
3343,000000	66,569645
3342,000000	66,580347
3341,000000	66,585940
3340,000000	66,581006
3339,000000	66,565240
3338,000000	66,550490
3337,000000	66,554426
3336,000000	66,584788
3335,000000	66,633633
3334,000000	66,687285
3333,000000	66,736433
3332,000000	66,775833
3331,000000	66,801733
3330,000000	66,813914
3329,000000	66,817059
3328,000000	66,817668
3327,000000	66,821767
3326,000000	66,835264
3325,000000	66,861640
3324,000000	66,897950
3323,000000	66,936702
3322,000000	66,972241
3321,000000	67,002822
3320,000000	67,028088
3319,000000	67,048720
3318,000000	67,066897
3317,000000	67,082349
3316,000000	67,090487
3315,000000	67,089640
3314,000000	67,086355
3313,000000	67,086564
3312,000000	67,085968
3311,000000	67,079139
3310,000000	67,075227
3309,000000	67,091851
3308,000000	67,133138
3307,000000	67,184964
3306,000000	67,233404
3305,000000	67,277454
3304,000000	67,320297
3303,000000	67,359164
3302,000000	67,389116
3301,000000	67,409240
3300,000000	67,421316
3299,000000	67,428439
3298,000000	67,436477
3297,000000	67,449428
3296,000000	67,461577
3295,000000	67,462912
3294,000000	67,455056
3293,000000	67,453473
3292,000000	67,470638
3291,000000	67,504272
3290,000000	67,545346
3289,000000	67,588308
3288,000000	67,628878
3287,000000	67,660335
3286,000000	67,679117
3285,000000	67,690084
3284,000000	67,701026
3283,000000	67,715118
3282,000000	67,731104
3281,000000	67,746034
3280,000000	67,754658
3279,000000	67,750944
3278,000000	67,734274
3277,000000	67,712389
3276,000000	67,696877
3275,000000	67,697626
3274,000000	67,720137
3273,000000	67,763110
3272,000000	67,817759
3271,000000	67,873157
3270,000000	67,922962
3269,000000	67,964706
3268,000000	67,995715
3267,000000	68,015584
3266,000000	68,030520
3265,000000	68,048299
3264,000000	68,069259
3263,000000	68,087754
3262,000000	68,101529
3261,000000	68,113434
3260,000000	68,124351
3259,000000	68,130822
3258,000000	68,130316
3257,000000	68,125168
3256,000000	68,122361
3255,000000	68,132480
3254,000000	68,164406
3253,000000	68,215244
3252,000000	68,269105
3251,000000	68,310716
3250,000000	68,335325
3249,000000	68,341744
3248,000000	68,326168
3247,000000	68,294673
3246,000000	68,272745
3245,000000	68,285946
3244,000000	68,332161
3243,000000	68,385878
3242,000000	68,428329
3241,000000	68,459546
3240,000000	68,484126
3239,000000	68,501532
3238,000000	68,513600
3237,000000	68,526956
3236,000000	68,542669
3235,000000	68,554497
3234,000000	68,561592
3233,000000	68,572294
3232,000000	68,591234
3231,000000	68,612900
3230,000000	68,632778
3229,000000	68,655680
3228,000000	68,687234
3227,000000	68,724961
3226,000000	68,762325
3225,000000	68,794584
3224,000000	68,815908
3223,000000	68,819009
3222,000000	68,805444
3221,000000	68,791843
3220,000000	68,797630
3219,000000	68,825752
3218,000000	68,859259
3217,000000	68,879114
3216,000000	68,883845
3215,000000	68,889999
3214,000000	68,911844
3213,000000	68,943821
3212,000000	68,969429
3211,000000	68,985332
3210,000000	69,007038
3209,000000	69,046663
3208,000000	69,096149
3207,000000	69,139314
3206,000000	69,171972
3205,000000	69,200061
3204,000000	69,224946
3203,000000	69,241520
3202,000000	69,246781
3201,000000	69,241293
3200,000000	69,227049
3199,000000	69,212965
3198,000000	69,216640
3197,000000	69,249248
3196,000000	69,301317
3195,000000	69,353004
3194,000000	69,395029
3193,000000	69,430237
3192,000000	69,460464
3191,000000	69,483425
3190,000000	69,499763
3189,000000	69,511618
3188,000000	69,516539
3187,000000	69,513701
3186,000000	69,513694
3185,000000	69,530699
3184,000000	69,564449
3183,000000	69,598808
3182,000000	69,617238
3181,000000	69,614595
3180,000000	69,598374
3179,000000	69,587382
3178,000000	69,602936
3177,000000	69,649715
3176,000000	69,708399
3175,000000	69,755769
3174,000000	69,787855
3173,000000	69,814008
3172,000000	69,836945
3171,000000	69,852629
3170,000000	69,864479
3169,000000	69,881491
3168,000000	69,903714
3167,000000	69,923683
3166,000000	69,941034
3165,000000	69,962677
3164,000000	69,989157
3163,000000	70,013724
3162,000000	70,034565
3161,000000	70,056041
3160,000000	70,078230
3159,000000	70,096874
3158,000000	70,113048
3157,000000	70,131440
3156,000000	70,149673
3155,000000	70,161073
3154,000000	70,167726
3153,000000	70,179585
3152,000000	70,200471
3151,000000	70,225593
3150,000000	70,252195
3149,000000	70,281861
3148,000000	70,312265
3147,000000	70,337445
3146,000000	70,356863
3145,000000	70,375094
3144,000000	70,393016
3143,000000	70,408113
3142,000000	70,422357
3141,000000	70,440735
3140,000000	70,463268
3139,000000	70,486399
3138,000000	70,508456
3137,000000	70,525274
3136,000000	70,526403
3135,000000	70,509462
3134,000000	70,494099
3133,000000	70,506415
3132,000000	70,548562
3131,000000	70,596826
3130,000000	70,629943
3129,000000	70,647604
3128,000000	70,659415
3127,000000	70,668845
3126,000000	70,672887
3125,000000	70,669619
3124,000000	70,662103
3123,000000	70,658332
3122,000000	70,666251
3121,000000	70,683956
3120,000000	70,698512
3119,000000	70,701243
3118,000000	70,700108
3117,000000	70,710169
3116,000000	70,736649
3115,000000	70,775594
3114,000000	70,823619
3113,000000	70,876106
3112,000000	70,921063
3111,000000	70,948712
3110,000000	70,964719
3109,000000	70,983047
3108,000000	71,007872
3107,000000	71,032003
3106,000000	71,048490
3105,000000	71,053055
3104,000000	71,041478
3103,000000	71,018571
3102,000000	71,005677
3101,000000	71,022570
3100,000000	71,062300
3099,000000	71,097537
3098,000000	71,113544
3097,000000	71,122741
3096,000000	71,145898
3095,000000	71,190520
3094,000000	71,248980
3093,000000	71,307545
3092,000000	71,353839
3091,000000	71,383454
3090,000000	71,401527
3089,000000	71,414933
3088,000000	71,425090
3087,000000	71,432275
3086,000000	71,440490
3085,000000	71,450255
3084,000000	71,453118
3083,000000	71,442802
3082,000000	71,427032
3081,000000	71,419595
3080,000000	71,426298
3079,000000	71,447300
3078,000000	71,485048
3077,000000	71,537466
3076,000000	71,589741
3075,000000	71,626701
3074,000000	71,649237
3073,000000	71,666543
3072,000000	71,676788
3071,000000	71,668569
3070,000000	71,638257
3069,000000	71,594016
3068,000000	71,546794
3067,000000	71,509106
3066,000000	71,497439
3065,000000	71,521069
3064,000000	71,569503
3063,000000	71,622028
3062,000000	71,666462
3061,000000	71,698607
3060,000000	71,711280
3059,000000	71,701515
3058,000000	71,685386
3057,000000	71,689105
3056,000000	71,723148
3055,000000	71,775492
3054,000000	71,827858
3053,000000	71,867081
3052,000000	71,884705
3051,000000	71,882121
3050,000000	71,876539
3049,000000	71,888152
3048,000000	71,919063
3047,000000	71,954216
3046,000000	71,981977
3045,000000	72,002492
3044,000000	72,017891
3043,000000	72,027709
3042,000000	72,035286
3041,000000	72,046491
3040,000000	72,059524
3039,000000	72,064843
3038,000000	72,056890
3037,000000	72,037567
3036,000000	72,008478
3035,000000	71,968967
3034,000000	71,924022
3033,000000	71,887521
3032,000000	71,874379
3031,000000	71,890787
3030,000000	71,928278
3029,000000	71,964508
3028,000000	71,976440
3027,000000	71,959024
3026,000000	71,927296
3025,000000	71,896328
3024,000000	71,866886
3023,000000	71,834452
3022,000000	71,800512
3021,000000	71,766038
3020,000000	71,725512
3019,000000	71,679585
3018,000000	71,645163
3017,000000	71,639519
3016,000000	71,661616
3015,000000	71,700404
3014,000000	71,754650
3013,000000	71,831163
3012,000000	71,929291
3011,000000	72,040304
3010,000000	72,155888
3009,000000	72,266134
3008,000000	72,354929
3007,000000	72,412545
3006,000000	72,448861
3005,000000	72,482300
3004,000000	72,519169
3003,000000	72,553915
3002,000000	72,583903
3001,000000	72,610498
3000,000000	72,630846
2999,000000	72,640780
2998,000000	72,643263
2997,000000	72,643572
2996,000000	72,640845
2995,000000	72,634664
2994,000000	72,633439
2993,000000	72,643997
2992,000000	72,658265
2991,000000	72,662615
2990,000000	72,656390
2989,000000	72,649495
2988,000000	72,646303
2987,000000	72,643390
2986,000000	72,638483
2985,000000	72,629947
2984,000000	72,611368
2983,000000	72,577968
2982,000000	72,535347
2981,000000	72,492396
2980,000000	72,449601
2979,000000	72,402771
2978,000000	72,351639
2977,000000	72,295925
2976,000000	72,229609
2975,000000	72,149497
2974,000000	72,062472
2973,000000	71,973644
2972,000000	71,875169
2971,000000	71,757496
2970,000000	71,624772
2969,000000	71,488167
2968,000000	71,351822
2967,000000	71,217105
2966,000000	71,092169
2965,000000	70,984641
2964,000000	70,891096
2963,000000	70,806064
2962,000000	70,734155
2961,000000	70,681539
2960,000000	70,643288
2959,000000	70,611417
2958,000000	70,588087
2957,000000	70,577454
2956,000000	70,572433
2955,000000	70,563340
2954,000000	70,552608
2953,000000	70,547317
2952,000000	70,542848
2951,000000	70,528037
2950,000000	70,500623
2949,000000	70,464869
2948,000000	70,419277
2947,000000	70,359244
2946,000000	70,286776
2945,000000	70,205184
2944,000000	70,110123
2943,000000	69,996615
2942,000000	69,869217
2941,000000	69,734558
2940,000000	69,591466
2939,000000	69,439757
2938,000000	69,290223
2937,000000	69,153908
2936,000000	69,028906
2935,000000	68,909242
2934,000000	68,797756
2933,000000	68,697484
2932,000000	68,600207
2931,000000	68,498009
2930,000000	68,398774
2929,000000	68,316833
2928,000000	68,256297
2927,000000	68,217607
2926,000000	68,211164
2925,000000	68,250089
2924,000000	68,335500
2923,000000	68,462317
2922,000000	68,631433
2921,000000	68,841465
2920,000000	69,077622
2919,000000	69,322598
2918,000000	69,572438
2917,000000	69,827198
2916,000000	70,075482
2915,000000	70,303802
2914,000000	70,513372
2913,000000	70,712485
2912,000000	70,898737
2911,000000	71,064193
2910,000000	71,211024
2909,000000	71,346842
2908,000000	71,470854
2907,000000	71,579479
2906,000000	71,679256
2905,000000	71,779307
2904,000000	71,877130
2903,000000	71,965761
2902,000000	72,048290
2901,000000	72,131213
2900,000000	72,210209
2899,000000	72,277446
2898,000000	72,336793
2897,000000	72,397598
2896,000000	72,459582
2895,000000	72,517238
2894,000000	72,572511
2893,000000	72,629340
2892,000000	72,682613
2891,000000	72,726113
2890,000000	72,764445
2889,000000	72,803723
2888,000000	72,838257
2887,000000	72,860059
2886,000000	72,873540
2885,000000	72,886485
2884,000000	72,894431
2883,000000	72,888813
2882,000000	72,872851
2881,000000	72,854657
2880,000000	72,831793
2879,000000	72,797117
2878,000000	72,752446
2877,000000	72,702174
2876,000000	72,641286
2875,000000	72,564525
2874,000000	72,479631
2873,000000	72,396158
2872,000000	72,308367
2871,000000	72,203623
2870,000000	72,080629
2869,000000	71,944553
2868,000000	71,792810
2867,000000	71,621621
2866,000000	71,440876
2865,000000	71,266715
2864,000000	71,106036
2863,000000	70,961691
2862,000000	70,845616
2861,000000	70,771709
2860,000000	70,740945
2859,000000	70,746681
2858,000000	70,787605
2857,000000	70,862031
2856,000000	70,958344
2855,000000	71,065764
2854,000000	71,187773
2853,000000	71,331321
2852,000000	71,491217
2851,000000	71,658219
2850,000000	71,833973
2849,000000	72,022750
2848,000000	72,216857
2847,000000	72,405185
2846,000000	72,587822
2845,000000	72,768122
2844,000000	72,938925
2843,000000	73,091373
2842,000000	73,229447
2841,000000	73,360945
2840,000000	73,482628
2839,000000	73,588906
2838,000000	73,685946
2837,000000	73,782036
2836,000000	73,872519
2835,000000	73,949560
2834,000000	74,018124
2833,000000	74,087168
2832,000000	74,153416
2831,000000	74,209418
2830,000000	74,259210
2829,000000	74,310691
2828,000000	74,360730
2827,000000	74,402772
2826,000000	74,441098
2825,000000	74,482503
2824,000000	74,522436
2823,000000	74,554092
2822,000000	74,582405
2821,000000	74,614702
2820,000000	74,646374
2819,000000	74,670646
2818,000000	74,692849
2817,000000	74,720123
2816,000000	74,746651
2815,000000	74,764293
2814,000000	74,778116
2813,000000	74,795881
2812,000000	74,812521
2811,000000	74,820643
2810,000000	74,826643
2809,000000	74,839835
2808,000000	74,855207
2807,000000	74,863256
2806,000000	74,867257
2805,000000	74,874943
2804,000000	74,882568
2803,000000	74,883423
2802,000000	74,882661
2801,000000	74,887529
2800,000000	74,892864
2799,000000	74,892168
2798,000000	74,892672
2797,000000	74,903193
2796,000000	74,917218
2795,000000	74,925089
2794,000000	74,932292
2793,000000	74,948335
2792,000000	74,968288
2791,000000	74,983026
2790,000000	74,997978
2789,000000	75,023419
2788,000000	75,055215
2787,000000	75,083336
2786,000000	75,110281
2785,000000	75,143347
2784,000000	75,177733
2783,000000	75,204759
2782,000000	75,228496
2781,000000	75,256953
2780,000000	75,285461
2779,000000	75,305698
2778,000000	75,322029
2777,000000	75,342168
2776,000000	75,361201
2775,000000	75,371890
2774,000000	75,380942
2773,000000	75,397861
2772,000000	75,416996
2771,000000	75,428219
2770,000000	75,435690
2769,000000	75,448365
2768,000000	75,461942
2767,000000	75,468045
2766,000000	75,471884
2765,000000	75,482669
2764,000000	75,495678
2763,000000	75,501495
2762,000000	75,504071
2761,000000	75,512120
2760,000000	75,521918
2759,000000	75,526106
2758,000000	75,529927
2757,000000	75,541112
2756,000000	75,553289
2755,000000	75,557207
2754,000000	75,558471
2753,000000	75,566730
2752,000000	75,577168
2751,000000	75,580685
2750,000000	75,582262
2749,000000	75,590931
2748,000000	75,601457
2747,000000	75,604564
2746,000000	75,605508
2745,000000	75,613923
2744,000000	75,624924
2743,000000	75,629011
2742,000000	75,630969
2741,000000	75,640088
2740,000000	75,651335
2739,000000	75,655134
2738,000000	75,656486
2737,000000	75,665343
2736,000000	75,677267
2735,000000	75,682480
2734,000000	75,685020
2733,000000	75,694162
2732,000000	75,705683
2731,000000	75,710351
2730,000000	75,712170
2729,000000	75,719859
2728,000000	75,729199
2727,000000	75,732041
2726,000000	75,733806
2725,000000	75,743615
2724,000000	75,756289
2723,000000	75,762180
2722,000000	75,765644
2721,000000	75,775638
2720,000000	75,787603
2719,000000	75,792967
2718,000000	75,796756
2717,000000	75,807461
2716,000000	75,819131
2715,000000	75,822369
2714,000000	75,822983
2713,000000	75,831188
2712,000000	75,841996
2711,000000	75,845504
2710,000000	75,846601
2709,000000	75,855305
2708,000000	75,866927
2707,000000	75,871134
2706,000000	75,871710
2705,000000	75,878415
2704,000000	75,888430
2703,000000	75,894217
2702,000000	75,900532
2701,000000	75,915106
2700,000000	75,932021
2699,000000	75,942332
2698,000000	75,951536
2697,000000	75,968338
2696,000000	75,986507
2695,000000	75,996196
2694,000000	76,002886
2693,000000	76,016363
2692,000000	76,031632
2691,000000	76,039396
2690,000000	76,045001
2689,000000	76,057587
2688,000000	76,071200
2687,000000	76,075903
2686,000000	76,077110
2685,000000	76,084680
2684,000000	76,093464
2683,000000	76,094302
2682,000000	76,093335
2681,000000	76,100733
2680,000000	76,110837
2679,000000	76,113261
2678,000000	76,113118
2677,000000	76,120436
2676,000000	76,130159
2675,000000	76,132477
2674,000000	76,132477
2673,000000	76,139580
2672,000000	76,148122
2671,000000	76,148392
2670,000000	76,146423
2669,000000	76,152428
2668,000000	76,160550
2667,000000	76,160346
2666,000000	76,157626
2665,000000	76,163353
2664,000000	76,172419
2663,000000	76,173986
2662,000000	76,172571
2661,000000	76,178301
2660,000000	76,186464
2659,000000	76,187486
2658,000000	76,186808
2657,000000	76,194436
2656,000000	76,204885
2655,000000	76,207971
2654,000000	76,208909
2653,000000	76,217628
2652,000000	76,228627
2651,000000	76,231966
2650,000000	76,233496
2649,000000	76,243395
2648,000000	76,255617
2647,000000	76,259443
2646,000000	76,260665
2645,000000	76,270149
2644,000000	76,282394
2643,000000	76,286347
2642,000000	76,287192
2641,000000	76,295611
2640,000000	76,306296
2639,000000	76,308661
2638,000000	76,308275
2637,000000	76,316365
2636,000000	76,328063
2635,000000	76,332433
2634,000000	76,333799
2633,000000	76,341918
2632,000000	76,351375
2631,000000	76,352332
2630,000000	76,350992
2629,000000	76,358378
2628,000000	76,368805
2627,000000	76,371272
2626,000000	76,371285
2625,000000	76,379601
2624,000000	76,390179
2623,000000	76,391102
2622,000000	76,387584
2621,000000	76,391792
2620,000000	76,400204
2619,000000	76,402591
2618,000000	76,403373
2617,000000	76,412120
2616,000000	76,422812
2615,000000	76,424429
2614,000000	76,422466
2613,000000	76,428400
2612,000000	76,437741
2611,000000	76,439635
2610,000000	76,438196
2609,000000	76,442848
2608,000000	76,448015
2607,000000	76,443874
2606,000000	76,436902
2605,000000	76,438416
2604,000000	76,442749
2603,000000	76,438568
2602,000000	76,430732
2601,000000	76,429892
2600,000000	76,430798
2599,000000	76,423065
2598,000000	76,412456
2597,000000	76,409883
2596,000000	76,409975
2595,000000	76,402343
2594,000000	76,393309
2593,000000	76,394194
2592,000000	76,399197
2591,000000	76,396665
2590,000000	76,391862
2589,000000	76,396191
2588,000000	76,404967
2587,000000	76,407633
2586,000000	76,409244
2585,000000	76,419487
2584,000000	76,431834
2583,000000	76,435576
2582,000000	76,437387
2581,000000	76,448670
2580,000000	76,463002
2579,000000	76,468548
2578,000000	76,471075
2577,000000	76,481785
2576,000000	76,494153
2575,000000	76,496020
2574,000000	76,493343
2573,000000	76,498403
2572,000000	76,506182
2571,000000	76,505425
2570,000000	76,502272
2569,000000	76,508588
2568,000000	76,518340
2567,000000	76,518739
2566,000000	76,514513
2565,000000	76,517415
2564,000000	76,522899
2563,000000	76,520459
2562,000000	76,515954
2561,000000	76,520230
2560,000000	76,526578
2559,000000	76,523385
2558,000000	76,517294
2557,000000	76,520709
2556,000000	76,527263
2555,000000	76,524383
2554,000000	76,517982
2553,000000	76,520816
2552,000000	76,527295
2551,000000	76,524880
2550,000000	76,519152
2549,000000	76,522598
2548,000000	76,529729
2547,000000	76,527921
2546,000000	76,522556
2545,000000	76,526060
2544,000000	76,532992
2543,000000	76,530795
2542,000000	76,525050
2541,000000	76,528814
2540,000000	76,537122
2539,000000	76,537012
2538,000000	76,532837
2537,000000	76,536708
2536,000000	76,544064
2535,000000	76,543162
2534,000000	76,539081
2533,000000	76,543530
2532,000000	76,550891
2531,000000	76,549184
2530,000000	76,544206
2529,000000	76,548809
2528,000000	76,557649
2527,000000	76,557684
2526,000000	76,553231
2525,000000	76,556332
2524,000000	76,562512
2523,000000	76,560439
2522,000000	76,555295
2521,000000	76,558186
2520,000000	76,562898
2519,000000	76,557692
2518,000000	76,549373
2517,000000	76,550734
2516,000000	76,555647
2515,000000	76,550832
2514,000000	76,541849
2513,000000	76,541648
2512,000000	76,544725
2511,000000	76,538218
2510,000000	76,527607
2509,000000	76,525647
2508,000000	76,526687
2507,000000	76,518013
2506,000000	76,505862
2505,000000	76,504359
2504,000000	76,508461
2503,000000	76,504196
2502,000000	76,495121
2501,000000	76,492989
2500,000000	76,492866
2499,000000	76,483796
2498,000000	76,473232
2497,000000	76,474554
2496,000000	76,480729
2495,000000	76,476678
2494,000000	76,467353
2493,000000	76,466688
2492,000000	76,469753
2491,000000	76,463074
2490,000000	76,452426
2489,000000	76,452211
2488,000000	76,457352
2487,000000	76,453237
2486,000000	76,444129
2485,000000	76,443853
2484,000000	76,447698
2483,000000	76,441416
2482,000000	76,429449
2481,000000	76,426707
2480,000000	76,430256
2479,000000	76,426643
2478,000000	76,418746
2477,000000	76,418685
2476,000000	76,421959
2475,000000	76,415932
2474,000000	76,405548
2473,000000	76,404199
2472,000000	76,407262
2471,000000	76,401333
2470,000000	76,391075
2469,000000	76,389973
2468,000000	76,393256
2467,000000	76,386876
2466,000000	76,375225
2465,000000	76,372631
2464,000000	76,375771
2463,000000	76,371166
2462,000000	76,362070
2461,000000	76,360999
2460,000000	76,363874
2459,000000	76,358321
2458,000000	76,349350
2457,000000	76,350144
2456,000000	76,355557
2455,000000	76,351760
2454,000000	76,343415
2453,000000	76,344471
2452,000000	76,350370
2451,000000	76,347004
2450,000000	76,338668
2449,000000	76,339548
2448,000000	76,345598
2447,000000	76,342750
2446,000000	76,335037
2445,000000	76,336469
2444,000000	76,342883
2443,000000	76,339935
2442,000000	76,331722
2441,000000	76,332909
2440,000000	76,339848
2439,000000	76,337667
2438,000000	76,329394
2437,000000	76,329281
2436,000000	76,334212
2435,000000	76,330068
2434,000000	76,320266
2433,000000	76,319115
2432,000000	76,322877
2431,000000	76,316143
2430,000000	76,301472
2429,000000	76,294492
2428,000000	76,294542
2427,000000	76,288381
2426,000000	76,277805
2425,000000	76,275612
2424,000000	76,278694
2423,000000	76,273224
2422,000000	76,262124
2421,000000	76,259725
2420,000000	76,263530
2419,000000	76,259114
2418,000000	76,248467
2417,000000	76,245513
2416,000000	76,247940
2415,000000	76,241498
2414,000000	76,228722
2413,000000	76,224956
2412,000000	76,229051
2411,000000	76,226005
2410,000000	76,216093
2409,000000	76,213086
2408,000000	76,216097
2407,000000	76,211311
2406,000000	76,199847
2405,000000	76,196062
2404,000000	76,199324
2403,000000	76,195236
2402,000000	76,184048
2401,000000	76,180199
2400,000000	76,183838
2399,000000	76,180656
2398,000000	76,170025
2397,000000	76,165939
2396,000000	76,168535
2395,000000	76,162072
2394,000000	76,142524
2393,000000	76,119313
2392,000000	76,086553
2391,000000	76,015493
2390,000000	75,880660
2389,000000	75,661296
2388,000000	75,312796
2387,000000	74,766049
2386,000000	73,951347
2385,000000	72,817980
2384,000000	71,314756
2383,000000	69,393836
2382,000000	67,055558
2381,000000	64,352750
2380,000000	61,369336
2379,000000	58,192706
2378,000000	54,922168
2377,000000	51,668700
2376,000000	48,513360
2375,000000	45,493361
2374,000000	42,628922
2373,000000	39,950910
2372,000000	37,479500
2371,000000	35,210194
2370,000000	33,135673
2369,000000	31,270141
2368,000000	29,631574
2367,000000	28,205620
2366,000000	26,974753
2365,000000	25,952936
2364,000000	25,165485
2363,000000	24,604157
2362,000000	24,229908
2361,000000	24,042978
2360,000000	24,093447
2359,000000	24,418923
2358,000000	25,025981
2357,000000	25,931176
2356,000000	27,198196
2355,000000	28,899485
2354,000000	31,113548
2353,000000	33,982324
2352,000000	37,572742
2351,000000	41,489337
2350,000000	44,651381
2349,000000	45,807086
2348,000000	44,494579
2347,000000	41,496431
2346,000000	38,225080
2345,000000	35,692302
2344,000000	34,099071
2343,000000	33,190379
2342,000000	32,733852
2341,000000	32,597068
2340,000000	32,656884
2339,000000	32,808196
2338,000000	33,035610
2337,000000	33,349124
2336,000000	33,691370
2335,000000	33,960764
2334,000000	34,107502
2333,000000	34,173746
2332,000000	34,267188
2331,000000	34,528162
2330,000000	35,069446
2329,000000	35,885112
2328,000000	36,831122
2327,000000	37,726458
2326,000000	38,473929
2325,000000	39,096478
2324,000000	39,698557
2323,000000	40,421632
2322,000000	41,382754
2321,000000	42,616030
2320,000000	44,076776
2319,000000	45,690883
2318,000000	47,364116
2317,000000	48,954182
2316,000000	50,318548
2315,000000	51,434478
2314,000000	52,425440
2313,000000	53,441819
2312,000000	54,548210
2311,000000	55,740860
2310,000000	57,004431
2309,000000	58,311246
2308,000000	59,610824
2307,000000	60,869406
2306,000000	62,087064
2305,000000	63,247386
2304,000000	64,295664
2303,000000	65,202737
2302,000000	66,007166
2301,000000	66,760572
2300,000000	67,467167
2299,000000	68,115669
2298,000000	68,724110
2297,000000	69,311491
2296,000000	69,864963
2295,000000	70,372663
2294,000000	70,858396
2293,000000	71,343347
2292,000000	71,809260
2291,000000	72,237265
2290,000000	72,646745
2289,000000	73,059804
2288,000000	73,462215
2287,000000	73,833912
2286,000000	74,180607
2285,000000	74,493884
2284,000000	74,720519
2283,000000	74,818848
2282,000000	74,813375
2281,000000	74,758152
2280,000000	74,675428
2279,000000	74,571678
2278,000000	74,475421
2277,000000	74,411360
2276,000000	74,365932
2275,000000	74,318593
2274,000000	74,282316
2273,000000	74,274136
2272,000000	74,277356
2271,000000	74,271254
2270,000000	74,269647
2269,000000	74,290822
2268,000000	74,319918
2267,000000	74,339342
2266,000000	74,365867
2265,000000	74,418284
2264,000000	74,479105
2263,000000	74,526817
2262,000000	74,575851
2261,000000	74,644995
2260,000000	74,717608
2259,000000	74,773053
2258,000000	74,826188
2257,000000	74,896124
2256,000000	74,966300
2255,000000	75,016557
2254,000000	75,063097
2253,000000	75,126278
2252,000000	75,189373
2251,000000	75,230770
2250,000000	75,266123
2249,000000	75,316670
2248,000000	75,366822
2247,000000	75,394905
2246,000000	75,416322
2245,000000	75,453110
2244,000000	75,491051
2243,000000	75,508985
2242,000000	75,521588
2241,000000	75,549822
2240,000000	75,578804
2239,000000	75,587430
2238,000000	75,591139
2237,000000	75,612206
2236,000000	75,636376
2235,000000	75,641897
2234,000000	75,642687
2233,000000	75,660319
2232,000000	75,681177
2231,000000	75,684650
2230,000000	75,684824
2229,000000	75,702126
2228,000000	75,721517
2227,000000	75,721911
2226,000000	75,717808
2225,000000	75,729568
2224,000000	75,741354
2223,000000	75,731703
2222,000000	75,716648
2221,000000	75,718631
2220,000000	75,723082
2219,000000	75,708633
2218,000000	75,691453
2217,000000	75,694264
2216,000000	75,701735
2215,000000	75,690432
2214,000000	75,674453
2213,000000	75,676224
2212,000000	75,681411
2211,000000	75,667888
2210,000000	75,650485
2209,000000	75,651922
2208,000000	75,657567
2207,000000	75,645173
2206,000000	75,629440
2205,000000	75,632806
2204,000000	75,640306
2203,000000	75,629482
2202,000000	75,615354
2201,000000	75,620496
2200,000000	75,629169
2199,000000	75,617919
2198,000000	75,602036
2197,000000	75,605131
2196,000000	75,612522
2195,000000	75,600970
2194,000000	75,585850
2193,000000	75,590822
2192,000000	75,600664
2191,000000	75,590960
2190,000000	75,576268
2189,000000	75,580169
2188,000000	75,587864
2187,000000	75,575670
2186,000000	75,558988
2185,000000	75,562045
2184,000000	75,569129
2183,000000	75,555358
2182,000000	75,535979
2181,000000	75,536899
2180,000000	75,543780
2179,000000	75,531052
2178,000000	75,511815
2177,000000	75,510372
2176,000000	75,512801
2175,000000	75,494742
2174,000000	75,470164
2173,000000	75,463097
2172,000000	75,459565
2171,000000	75,436835
2170,000000	75,411998
2169,000000	75,411048
2168,000000	75,418565
2167,000000	75,407252
2166,000000	75,389289
2165,000000	75,387924
2164,000000	75,388235
2163,000000	75,366933
2162,000000	75,342157
2161,000000	75,341394
2160,000000	75,348545
2159,000000	75,334863
2158,000000	75,313532
2157,000000	75,311628
2156,000000	75,315771
2155,000000	75,299518
2154,000000	75,276202
2153,000000	75,272478
2152,000000	75,275386
2151,000000	75,258997
2150,000000	75,236007
2149,000000	75,231433
2148,000000	75,231882
2147,000000	75,213182
2146,000000	75,190858
2145,000000	75,190489
2144,000000	75,195950
2143,000000	75,179133
2142,000000	75,154076
2141,000000	75,147748
2140,000000	75,145807
2139,000000	75,120722
2138,000000	75,087607
2137,000000	75,077639
2136,000000	75,081887
2135,000000	75,074052
2134,000000	75,062281
2133,000000	75,066610
2132,000000	75,071386
2131,000000	75,053280
2130,000000	75,029555
2129,000000	75,027237
2128,000000	75,030930
2127,000000	75,013329
2126,000000	74,988603
2125,000000	74,984022
2124,000000	74,986415
2123,000000	74,970079
2122,000000	74,948773
2121,000000	74,947826
2120,000000	74,952021
2119,000000	74,933523
2118,000000	74,904187
2117,000000	74,889075
2116,000000	74,878573
2115,000000	74,855673
2114,000000	74,840262
2113,000000	74,853476
2112,000000	74,870671
2111,000000	74,861228
2110,000000	74,843140
2109,000000	74,845855
2108,000000	74,853824
2107,000000	74,840273
2106,000000	74,822280
2105,000000	74,827041
2104,000000	74,836774
2103,000000	74,823583
2102,000000	74,804295
2101,000000	74,806615
2100,000000	74,813828
2099,000000	74,799268
2098,000000	74,780156
2097,000000	74,782988
2096,000000	74,789821
2095,000000	74,773540
2094,000000	74,749032
2093,000000	74,735761
2092,000000	74,711812
2091,000000	74,661443
2090,000000	74,625305
2089,000000	74,641105
2088,000000	74,677627
2087,000000	74,687165
2086,000000	74,682235
2085,000000	74,695519
2084,000000	74,709545
2083,000000	74,693756
2082,000000	74,669525
2081,000000	74,668873
2080,000000	74,669256
2079,000000	74,639080
2078,000000	74,606035
2077,000000	74,610115
2076,000000	74,628762
2075,000000	74,621578
2074,000000	74,606636
2073,000000	74,620009
2072,000000	74,640690
2071,000000	74,631480
2070,000000	74,610476
2069,000000	74,603113
2068,000000	74,569466
2067,000000	74,468715
2066,000000	74,358501
2065,000000	74,334348
2064,000000	74,397552
2063,000000	74,468639
2062,000000	74,508827
2061,000000	74,539879
2060,000000	74,566966
2059,000000	74,570493
2058,000000	74,562546
2057,000000	74,572697
2056,000000	74,588503
2055,000000	74,579498
2054,000000	74,560875
2053,000000	74,566325
2052,000000	74,581059
2051,000000	74,571087
2050,000000	74,551025
2049,000000	74,554137
2048,000000	74,563508
2047,000000	74,544669
2046,000000	74,512892
2045,000000	74,495565
2044,000000	74,464921
2043,000000	74,390315
2042,000000	74,321707
2041,000000	74,332319
2040,000000	74,405956
2039,000000	74,465477
2038,000000	74,489061
2037,000000	74,510699
2036,000000	74,532487
2035,000000	74,526471
2034,000000	74,506281
2033,000000	74,509404
2032,000000	74,522909
2031,000000	74,506645
2030,000000	74,472633
2029,000000	74,463534
2028,000000	74,472029
2027,000000	74,460794
2026,000000	74,439538
2025,000000	74,443177
2024,000000	74,457323
2023,000000	74,444654
2022,000000	74,413705
2021,000000	74,378213
2020,000000	74,288026
2019,000000	74,105566
2018,000000	73,923356
2017,000000	73,890495
2016,000000	74,026517
2015,000000	74,208298
2014,000000	74,336461
2013,000000	74,410325
2012,000000	74,446002
2011,000000	74,433279
2010,000000	74,391779
2009,000000	74,373736
2008,000000	74,386864
2007,000000	74,391191
2006,000000	74,381154
2005,000000	74,391221
2004,000000	74,416008
2003,000000	74,409958
2002,000000	74,372602
2001,000000	74,350622
2000,000000	74,349894
1999,000000	74,334725
1998,000000	74,315974
1997,000000	74,331190
1996,000000	74,316488
1995,000000	74,122011
1994,000000	73,722515
1993,000000	73,324418
1992,000000	73,176942
1991,000000	73,320090
1990,000000	73,587430
1989,000000	73,813371
1988,000000	73,962492
1987,000000	74,076910
1986,000000	74,176104
1985,000000	74,241116
1984,000000	74,259723
1983,000000	74,249996
1982,000000	74,239076
1981,000000	74,234820
1980,000000	74,227529
1979,000000	74,212215
1978,000000	74,197025
1977,000000	74,188061
1976,000000	74,180234
1975,000000	74,169215
1974,000000	74,161157
1973,000000	74,162248
1972,000000	74,156251
1971,000000	74,092084
1970,000000	73,908697
1969,000000	73,610232
1968,000000	73,326327
1967,000000	73,241360
1966,000000	73,415147
1965,000000	73,703802
1964,000000	73,908304
1963,000000	73,968697
1962,000000	73,959707
1961,000000	73,945347
1960,000000	73,926209
1959,000000	73,902355
1958,000000	73,890170
1957,000000	73,878601
1956,000000	73,848166
1955,000000	73,828011
1954,000000	73,858397
1953,000000	73,913251
1952,000000	73,935741
1951,000000	73,925419
1950,000000	73,909899
1949,000000	73,867369
1948,000000	73,765429
1947,000000	73,616725
1946,000000	73,392067
1945,000000	72,977431
1944,000000	72,393810
1943,000000	71,977392
1942,000000	72,098049
1941,000000	72,698920
1940,000000	73,332840
1939,000000	73,676156
1938,000000	73,786618
1937,000000	73,833908
1936,000000	73,839710
1935,000000	73,780919
1934,000000	73,727350
1933,000000	73,737012
1932,000000	73,760094
1931,000000	73,748884
1930,000000	73,741301
1929,000000	73,763912
1928,000000	73,764794
1927,000000	73,677251
1926,000000	73,441005
1925,000000	73,009291
1924,000000	72,498534
1923,000000	72,229129
1922,000000	72,330731
1921,000000	72,387439
1920,000000	71,885249
1919,000000	71,031875
1918,000000	70,679260
1917,000000	71,273099
1916,000000	72,313779
1915,000000	73,058176
1914,000000	73,328207
1913,000000	73,343869
1912,000000	73,181287
1911,000000	72,832805
1910,000000	72,523249
1909,000000	72,520928
1908,000000	72,754084
1907,000000	72,957499
1906,000000	73,066909
1905,000000	73,179976
1904,000000	73,270509
1903,000000	73,249993
1902,000000	73,195082
1901,000000	73,231837
1900,000000	73,289485
1899,000000	73,209386
1898,000000	72,993402
1897,000000	72,748926
1896,000000	72,534742
1895,000000	72,428204
1894,000000	72,521605
1893,000000	72,639501
1892,000000	72,362210
1891,000000	71,628261
1890,000000	71,039319
1889,000000	71,181242
1888,000000	71,873094
1887,000000	72,473242
1886,000000	72,717506
1885,000000	72,824374
1884,000000	72,939399
1883,000000	72,979960
1882,000000	72,951780
1881,000000	72,981489
1880,000000	73,041376
1879,000000	73,005681
1878,000000	72,931972
1877,000000	72,965357
1876,000000	73,046230
1875,000000	73,024566
1874,000000	72,916215
1873,000000	72,664219
1872,000000	71,875832
1871,000000	70,326235
1870,000000	68,641395
1869,000000	67,891100
1868,000000	68,461112
1867,000000	69,759198
1866,000000	71,030304
1865,000000	71,976430
1864,000000	72,550828
1863,000000	72,724058
1862,000000	72,639444
1861,000000	72,586994
1860,000000	72,643050
1859,000000	72,648123
1858,000000	72,590149
1857,000000	72,645937
1856,000000	72,797515
1855,000000	72,819154
1854,000000	72,707469
1853,000000	72,695866
1852,000000	72,766030
1851,000000	72,620665
1850,000000	72,225127
1849,000000	71,840420
1848,000000	71,329881
1847,000000	70,046467
1846,000000	67,868822
1845,000000	65,910091
1844,000000	65,612091
1843,000000	67,235115
1842,000000	69,619927
1841,000000	71,388646
1840,000000	72,055755
1839,000000	72,026189
1838,000000	71,873396
1837,000000	71,840292
1836,000000	71,907524
1835,000000	72,011308
1834,000000	71,968929
1833,000000	71,348930
1832,000000	69,876830
1831,000000	68,120596
1830,000000	67,269962
1829,000000	67,826542
1828,000000	68,861447
1827,000000	69,148450
1826,000000	68,715293
1825,000000	68,645917
1824,000000	69,496299
1823,000000	70,674673
1822,000000	71,447627
1821,000000	71,761235
1820,000000	71,859032
1819,000000	71,765683
1818,000000	71,531340
1817,000000	71,450876
1816,000000	71,641816
1815,000000	71,758128
1814,000000	71,445966
1813,000000	70,810661
1812,000000	70,200166
1811,000000	69,839920
1810,000000	69,841619
1809,000000	70,236098
1808,000000	70,799418
1807,000000	71,150501
1806,000000	71,149437
1805,000000	70,905761
1804,000000	70,370836
1803,000000	69,397279
1802,000000	68,275222
1801,000000	67,677588
1800,000000	67,880424
1799,000000	68,498138
1798,000000	69,110072
1797,000000	69,527924
1796,000000	69,328182
1795,000000	67,903866
1794,000000	65,497295
1793,000000	63,536568
1792,000000	63,387795
1791,000000	65,041730
1790,000000	67,375445
1789,000000	69,263537
1788,000000	70,085112
1787,000000	69,769763
1786,000000	68,917389
1785,000000	68,453001
1784,000000	68,655809
1783,000000	68,880933
1782,000000	68,608350
1781,000000	68,257839
1780,000000	68,444392
1779,000000	68,986501
1778,000000	69,265464
1777,000000	69,015138
1776,000000	68,069411
1775,000000	65,972194
1774,000000	62,855150
1773,000000	60,259187
1772,000000	59,895781
1771,000000	61,582975
1770,000000	63,496473
1769,000000	64,517359
1768,000000	65,302097
1767,000000	66,737250
1766,000000	68,317773
1765,000000	68,739201
1764,000000	67,567158
1763,000000	65,777660
1762,000000	64,803422
1761,000000	65,251948
1760,000000	66,410916
1759,000000	66,966837
1758,000000	66,471114
1757,000000	65,924879
1756,000000	66,389048
1755,000000	67,291821
1754,000000	66,921863
1753,000000	64,687866
1752,000000	62,011540
1751,000000	60,620055
1750,000000	60,809887
1749,000000	61,810306
1748,000000	63,054879
1747,000000	64,330412
1746,000000	65,250741
1745,000000	65,490521
1744,000000	65,265377
1743,000000	64,874640
1742,000000	64,086985
1741,000000	62,817576
1740,000000	62,027521
1739,000000	62,729252
1738,000000	63,925391
1737,000000	63,002683
1736,000000	58,946413
1735,000000	54,281952
1734,000000	52,709479
1733,000000	55,168592
1732,000000	59,299943
1731,000000	62,489489
1730,000000	64,257326
1729,000000	65,499192
1728,000000	66,617363
1727,000000	67,261851
1726,000000	67,269880
1725,000000	66,983640
1724,000000	66,791963
1723,000000	66,727906
1722,000000	66,356026
1721,000000	64,766942
1720,000000	61,301207
1719,000000	56,798592
1718,000000	53,558260
1717,000000	53,299604
1716,000000	55,510741
1715,000000	58,421469
1714,000000	61,082813
1713,000000	63,515873
1712,000000	65,417391
1711,000000	66,125053
1710,000000	65,766993
1709,000000	65,076870
1708,000000	64,069286
1707,000000	62,349300
1706,000000	60,729489
1705,000000	60,589492
1704,000000	61,106453
1703,000000	59,307628
1702,000000	54,267005
1701,000000	49,446480
1700,000000	48,737419
1699,000000	51,415805
1698,000000	53,438910
1697,000000	53,081350
1696,000000	52,829290
1695,000000	55,354099
1694,000000	59,905334
1693,000000	63,666951
1692,000000	65,079341
1691,000000	64,810805
1690,000000	64,218178
1689,000000	63,806556
1688,000000	62,728020
1687,000000	59,590058
1686,000000	54,452172
1685,000000	49,968183
1684,000000	49,369835
1683,000000	53,012949
1682,000000	57,960924
1681,000000	61,422565
1680,000000	63,150434
1679,000000	63,887093
1678,000000	63,251395
1677,000000	60,787183
1676,000000	58,022285
1675,000000	57,352698
1674,000000	58,982236
1673,000000	60,521768
1672,000000	59,986797
1671,000000	58,002577
1670,000000	56,684888
1669,000000	57,356725
1668,000000	59,733983
1667,000000	62,481458
1666,000000	64,023814
1665,000000	63,487427
1664,000000	61,597695
1663,000000	60,283914
1662,000000	60,821769
1661,000000	62,618384
1660,000000	64,188136
1659,000000	64,827250
1658,000000	64,576871
1657,000000	62,769953
1656,000000	58,062027
1655,000000	50,678061
1654,000000	43,946886
1653,000000	42,157645
1652,000000	46,404547
1651,000000	53,198793
1650,000000	57,585846
1649,000000	57,496298
1648,000000	54,816401
1647,000000	52,879335
1646,000000	53,585793
1645,000000	56,598198
1644,000000	60,216145
1643,000000	62,787265
1642,000000	63,730546
1641,000000	63,597282
1640,000000	62,933579
1639,000000	61,263761
1638,000000	57,875743
1637,000000	53,619403
1636,000000	51,014141
1635,000000	51,966618
1634,000000	55,790951
1633,000000	59,990402
1632,000000	62,550400
1631,000000	63,085619
1630,000000	62,312835
1629,000000	61,213476
1628,000000	60,531701
1627,000000	60,339678
1626,000000	59,953673
1625,000000	58,812654
1624,000000	57,492488
1623,000000	57,326207
1622,000000	58,789564
1621,000000	60,581594
1620,000000	60,663527
1619,000000	58,238851
1618,000000	54,660905
1617,000000	52,444171
1616,000000	53,175548
1615,000000	56,191514
1614,000000	59,308071
1613,000000	60,858712
1612,000000	60,879448
1611,000000	60,392242
1610,000000	60,031409
1609,000000	59,795958
1608,000000	59,676740
1607,000000	59,833256
1606,000000	60,169274
1605,000000	60,328008
1604,000000	60,221343
1603,000000	60,156853
1602,000000	60,332505
1601,000000	60,577355
1600,000000	60,708824
1599,000000	60,780789
1598,000000	60,835612
1597,000000	60,748132
1596,000000	60,506838
1595,000000	60,361273
1594,000000	60,482560
1593,000000	60,703095
1592,000000	60,791751
1591,000000	60,788519
1590,000000	60,859119
1589,000000	60,989391
1588,000000	61,044804
1587,000000	61,023119
1586,000000	61,030390
1585,000000	61,061233
1584,000000	61,005762
1583,000000	60,879169
1582,000000	60,857332
1581,000000	60,890325
1580,000000	60,349717
1579,000000	58,346677
1578,000000	54,844192
1577,000000	51,434150
1576,000000	50,455120
1575,000000	52,771078
1574,000000	56,540119
1573,000000	58,718179
1572,000000	57,920432
1571,000000	55,510652
1570,000000	53,914475
1569,000000	54,303752
1568,000000	55,964486
1567,000000	57,468455
1566,000000	58,064398
1565,000000	58,033370
1564,000000	57,769249
1563,000000	56,556934
1562,000000	52,830938
1561,000000	46,355847
1560,000000	39,884395
1559,000000	37,377707
1558,000000	40,061966
1557,000000	45,170898
1556,000000	49,173854
1555,000000	51,300349
1554,000000	52,999292
1553,000000	54,968751
1552,000000	56,357515
1551,000000	56,707100
1550,000000	56,870538
1549,000000	57,520743
1548,000000	57,940386
1547,000000	57,107477
1546,000000	55,145364
1545,000000	52,921464
1544,000000	50,719563
1543,000000	48,078986
1542,000000	44,860111
1541,000000	42,025697
1540,000000	41,320110
1539,000000	43,984583
1538,000000	49,274701
1537,000000	54,296086
1536,000000	56,187485
1535,000000	54,913394
1534,000000	53,218981
1533,000000	53,538932
1532,000000	55,607407
1531,000000	57,521695
1530,000000	58,094825
1529,000000	57,430979
1528,000000	56,027436
1527,000000	54,478196
1526,000000	53,486273
1525,000000	53,023901
1524,000000	51,912309
1523,000000	49,415119
1522,000000	46,945899
1521,000000	46,739418
1520,000000	48,882674
1519,000000	51,105779
1518,000000	51,846351
1517,000000	52,031906
1516,000000	53,147944
1515,000000	54,898374
1514,000000	55,885694
1513,000000	55,764509
1512,000000	55,298784
1511,000000	54,612518
1510,000000	52,637472
1509,000000	48,708518
1508,000000	44,067856
1507,000000	41,331056
1506,000000	42,433600
1505,000000	46,983721
1504,000000	52,452130
1503,000000	56,104454
1502,000000	56,940122
1501,000000	55,786034
1500,000000	53,798583
1499,000000	51,449118
1498,000000	49,083022
1497,000000	47,618354
1496,000000	47,962598
1495,000000	49,834178
1494,000000	51,737751
1493,000000	52,235002
1492,000000	51,144074
1491,000000	49,554081
1490,000000	48,822518
1489,000000	49,487851
1488,000000	51,086899
1487,000000	52,916856
1486,000000	54,709094
1485,000000	56,351240
1484,000000	57,405620
1483,000000	57,545135
1482,000000	57,252572
1481,000000	57,319506
1480,000000	57,641034
1479,000000	57,326537
1478,000000	56,075605
1477,000000	54,531764
1476,000000	53,059577
1475,000000	51,208893
1474,000000	49,003842
1473,000000	47,768986
1472,000000	48,810770
1471,000000	51,745663
1470,000000	54,881116
1469,000000	56,787540
1468,000000	56,952641
1467,000000	55,583702
1466,000000	53,631430
1465,000000	52,587550
1464,000000	53,277827
1463,000000	54,934674
1462,000000	55,912827
1461,000000	55,095642
1460,000000	52,250733
1459,000000	47,910223
1458,000000	43,695968
1457,000000	42,014492
1456,000000	44,044071
1455,000000	48,234208
1454,000000	51,783094
1453,000000	53,435046
1452,000000	53,913755
1451,000000	53,986760
1450,000000	53,578045
1449,000000	52,812126
1448,000000	52,556926
1447,000000	53,335344
1446,000000	54,589338
1445,000000	55,502723
1444,000000	55,911648
1443,000000	56,095791
1442,000000	56,203856
1441,000000	56,095381
1440,000000	55,298117
1439,000000	53,250435
1438,000000	50,288944
1437,000000	48,198422
1436,000000	48,718906
1435,000000	51,430253
1434,000000	54,030673
1433,000000	54,928753
1432,000000	54,562106
1431,000000	54,075591
1430,000000	53,917321
1429,000000	54,107977
1428,000000	54,705965
1427,000000	55,330040
1426,000000	55,225490
1425,000000	54,432401
1424,000000	53,946818
1423,000000	54,001455
1422,000000	53,305868
1421,000000	50,975465
1420,000000	48,327084
1419,000000	47,554124
1418,000000	49,093945
1417,000000	51,489142
1416,000000	53,364471
1415,000000	54,470181
1414,000000	54,978468
1413,000000	54,951393
1412,000000	54,648280
1411,000000	54,495089
1410,000000	54,533424
1409,000000	54,404913
1408,000000	53,915246
1407,000000	53,180679
1406,000000	52,388502
1405,000000	51,831680
1404,000000	51,903410
1403,000000	52,492721
1402,000000	52,718167
1401,000000	51,931440
1400,000000	50,743024
1399,000000	50,247705
1398,000000	50,477072
1397,000000	50,491428
1396,000000	49,946589
1395,000000	49,660981
1394,000000	50,392219
1393,000000	51,853571
1392,000000	53,166489
1391,000000	53,696312
1390,000000	53,243762
1389,000000	52,044528
1388,000000	50,885825
1387,000000	50,669842
1386,000000	51,498994
1385,000000	52,568690
1384,000000	53,168219
1383,000000	53,345502
1382,000000	53,438412
1381,000000	53,466540
1380,000000	53,336266
1379,000000	53,179568
1378,000000	53,073865
1377,000000	52,751250
1376,000000	52,017426
1375,000000	51,249837
1374,000000	51,068706
1373,000000	51,605712
1372,000000	52,375355
1371,000000	52,842638
1370,000000	52,890864
1369,000000	52,775943
1368,000000	52,784820
1367,000000	52,907569
1366,000000	52,798257
1365,000000	52,153076
1364,000000	51,164065
1363,000000	50,458116
1362,000000	50,486544
1361,000000	51,116043
1360,000000	51,880423
1359,000000	52,442041
1358,000000	52,718510
1357,000000	52,749931
1356,000000	52,641056
1355,000000	52,547800
1354,000000	52,559892
1353,000000	52,615385
1352,000000	52,608998
1351,000000	52,532142
1350,000000	52,449749
1349,000000	52,401033
1348,000000	52,381337
1347,000000	52,376299
1346,000000	52,368530
1345,000000	52,333516
1344,000000	52,227673
1343,000000	51,958909
1342,000000	51,437896
1341,000000	50,747326
1340,000000	50,200869
1339,000000	50,096374
1338,000000	50,415918
1337,000000	50,889604
1336,000000	51,305478
1335,000000	51,623957
1334,000000	51,835629
1333,000000	51,898477
1332,000000	51,844853
1331,000000	51,786117
1330,000000	51,766841
1329,000000	51,731597
1328,000000	51,660572
1327,000000	51,606150
1326,000000	51,578523
1325,000000	51,520631
1324,000000	51,418210
1323,000000	51,310070
1322,000000	51,175754
1321,000000	50,947229
1320,000000	50,662042
1319,000000	50,472057
1318,000000	50,450697
1317,000000	50,504252
1316,000000	50,510014
1315,000000	50,449875
1314,000000	50,371622
1313,000000	50,314513
1312,000000	50,305298
1311,000000	50,343282
1310,000000	50,365982
1309,000000	50,307536
1308,000000	50,196483
1307,000000	50,117453
1306,000000	50,080919
1305,000000	50,023393
1304,000000	49,930978
1303,000000	49,854995
1302,000000	49,806174
1301,000000	49,735523
1300,000000	49,632441
1299,000000	49,540170
1298,000000	49,467441
1297,000000	49,378822
1296,000000	49,279126
1295,000000	49,211182
1294,000000	49,164843
1293,000000	49,082659
1292,000000	48,958784
1291,000000	48,841211
1290,000000	48,736253
1289,000000	48,610449
1288,000000	48,482734
1287,000000	48,413139
1286,000000	48,392405
1285,000000	48,345182
1284,000000	48,247696
1283,000000	48,147425
1282,000000	48,061395
1281,000000	47,953912
1280,000000	47,823873
1279,000000	47,714897
1278,000000	47,628257
1277,000000	47,515500
1276,000000	47,366836
1275,000000	47,216197
1274,000000	47,058146
1273,000000	46,851601
1272,000000	46,613380
1271,000000	46,410524
1270,000000	46,250955
1269,000000	46,072566
1268,000000	45,849205
1267,000000	45,619876
1266,000000	45,402190
1265,000000	45,168736
1264,000000	44,919943
1263,000000	44,699164
1262,000000	44,523802
1261,000000	44,381933
1260,000000	44,297081
1259,000000	44,309110
1258,000000	44,387435
1257,000000	44,448773
1256,000000	44,465992
1255,000000	44,477573
1254,000000	44,489903
1253,000000	44,460673
1252,000000	44,385837
1251,000000	44,311120
1250,000000	44,247172
1249,000000	44,156910
1248,000000	44,036368
1247,000000	43,924689
1246,000000	43,826994
1245,000000	43,708559
1244,000000	43,573581
1243,000000	43,466111
1242,000000	43,385218
1241,000000	43,282089
1240,000000	43,148648
1239,000000	43,028542
1238,000000	42,930767
1237,000000	42,816057
1236,000000	42,677404
1235,000000	42,553725
1234,000000	42,451321
1233,000000	42,331817
1232,000000	42,189298
1231,000000	42,062098
1230,000000	41,955851
1229,000000	41,830839
1228,000000	41,678111
1227,000000	41,533938
1226,000000	41,408600
1225,000000	41,272214
1224,000000	41,121519
1223,000000	40,987544
1222,000000	40,868083
1221,000000	40,724073
1220,000000	40,552825
1219,000000	40,394203
1218,000000	40,256276
1217,000000	40,104517
1216,000000	39,931971
1215,000000	39,770348
1214,000000	39,624526
1213,000000	39,466959
1212,000000	39,303276
1211,000000	39,172377
1210,000000	39,073664
1209,000000	38,964509
1208,000000	38,836301
1207,000000	38,723947
1206,000000	38,632512
1205,000000	38,526439
1204,000000	38,399896
1203,000000	38,287261
1202,000000	38,194292
1201,000000	38,087366
1200,000000	37,961302
1199,000000	37,849716
1198,000000	37,758231
1197,000000	37,653396
1196,000000	37,528129
1195,000000	37,412570
1194,000000	37,310980
1193,000000	37,192896
1192,000000	37,055532
1191,000000	36,930502
1190,000000	36,819773
1189,000000	36,689496
1188,000000	36,536535
1187,000000	36,396513
1186,000000	36,275721
1185,000000	36,137322
1184,000000	35,964973
1183,000000	35,781475
1182,000000	35,598302
1181,000000	35,408496
1180,000000	35,234409
1179,000000	35,116891
1178,000000	35,046283
1177,000000	34,966438
1176,000000	34,856003
1175,000000	34,745494
1174,000000	34,648321
1173,000000	34,538763
1172,000000	34,409138
1171,000000	34,285580
1170,000000	34,173692
1169,000000	34,047139
1168,000000	33,902564
1167,000000	33,768973
1166,000000	33,651993
1165,000000	33,524577
1164,000000	33,382182
1163,000000	33,251614
1162,000000	33,136841
1161,000000	33,011604
1160,000000	32,874099
1159,000000	32,753304
1158,000000	32,653010
1157,000000	32,544414
1156,000000	32,422247
1155,000000	32,312718
1154,000000	32,218791
1153,000000	32,112828
1152,000000	31,991586
1151,000000	31,883476
1150,000000	31,792510
1149,000000	31,689937
1148,000000	31,569747
1147,000000	31,459254
1146,000000	31,365517
1145,000000	31,264696
1144,000000	31,152881
1143,000000	31,055441
1142,000000	30,976695
1141,000000	30,891468
1140,000000	30,794064
1139,000000	30,705420
1138,000000	30,625216
1137,000000	30,527658
1136,000000	30,411783
1135,000000	30,304859
1134,000000	30,209982
1133,000000	30,100361
1132,000000	29,972484
1131,000000	29,853131
1130,000000	29,747833
1129,000000	29,632567
1128,000000	29,503644
1127,000000	29,385205
1126,000000	29,279835
1125,000000	29,162087
1124,000000	29,028029
1123,000000	28,902637
1122,000000	28,790396
1121,000000	28,667828
1120,000000	28,531204
1119,000000	28,404049
1118,000000	28,289758
1117,000000	28,165339
1116,000000	28,028130
1115,000000	27,901625
1114,000000	27,788681
1113,000000	27,666455
1112,000000	27,533608
1111,000000	27,414574
1110,000000	27,311554
1109,000000	27,199435
1108,000000	27,075675
1107,000000	26,966510
1106,000000	26,878061
1105,000000	26,787041
1104,000000	26,687184
1103,000000	26,597922
1102,000000	26,520457
1101,000000	26,431691
1100,000000	26,328854
1099,000000	26,235086
1098,000000	26,153698
1097,000000	26,062477
1096,000000	25,958811
1095,000000	25,866197
1094,000000	25,788518
1093,000000	25,703623
1092,000000	25,607719
1091,000000	25,522470
1090,000000	25,451037
1089,000000	25,371632
1088,000000	25,281225
1087,000000	25,201454
1086,000000	25,134791
1085,000000	25,057853
1084,000000	24,965840
1083,000000	24,880503
1082,000000	24,808678
1081,000000	24,734109
1080,000000	24,657167
1079,000000	24,598640
1078,000000	24,559094
1077,000000	24,515717
1076,000000	24,465871
1075,000000	24,432203
1074,000000	24,417978
1073,000000	24,400272
1072,000000	24,372628
1071,000000	24,353817
1070,000000	24,347445
1069,000000	24,334756
1068,000000	24,313288
1067,000000	24,303001
1066,000000	24,306605
1065,000000	24,304469
1064,000000	24,293720
1063,000000	24,293451
1062,000000	24,305255
1061,000000	24,308046
1060,000000	24,297336
1059,000000	24,289468
1058,000000	24,281175
1057,000000	24,242229
1056,000000	24,157117
1055,000000	24,036105
1054,000000	23,886654
1053,000000	23,713367
1052,000000	23,552812
1051,000000	23,464196
1050,000000	23,477441
1049,000000	23,579120
1048,000000	23,748850
1047,000000	23,971308
1046,000000	24,208647
1045,000000	24,410553
1044,000000	24,560739
1043,000000	24,681073
1042,000000	24,784492
1041,000000	24,862187
1040,000000	24,918091
1039,000000	24,975128
1038,000000	25,038909
1037,000000	25,092030
1036,000000	25,132311
1035,000000	25,178703
1034,000000	25,234575
1033,000000	25,281541
1032,000000	25,316615
1031,000000	25,358093
1030,000000	25,409486
1029,000000	25,452760
1028,000000	25,484719
1027,000000	25,523120
1026,000000	25,571447
1025,000000	25,612360
1024,000000	25,642936
1023,000000	25,681352
1022,000000	25,732248
1021,000000	25,780031
1020,000000	25,821823
1019,000000	25,874033
1018,000000	25,939150
1017,000000	26,001145
1016,000000	26,057872
1015,000000	26,125968
1014,000000	26,207365
1013,000000	26,284601
1012,000000	26,353940
1011,000000	26,430377
1010,000000	26,514956
1009,000000	26,590071
1008,000000	26,652488
1007,000000	26,717526
1006,000000	26,786652
1005,000000	26,842901
1004,000000	26,883920
1003,000000	26,926156
1002,000000	26,972040
1001,000000	27,004743
1000,000000	27,021446
999,000000	27,038351
998,000000	27,058725
997,000000	27,067340
996,000000	27,061694
995,000000	27,057677
994,000000	27,057860
993,000000	27,047027
992,000000	27,022781
991,000000	27,000811
990,000000	26,983971
989,000000	26,957496
988,000000	26,919035
987,000000	26,883542
986,000000	26,853177
985,000000	26,813439
984,000000	26,763178
983,000000	26,718238
982,000000	26,681003
981,000000	26,635891
980,000000	26,580495
979,000000	26,529703
978,000000	26,485713
977,000000	26,433060
976,000000	26,369298
975,000000	26,309934
974,000000	26,258522
973,000000	26,200846
972,000000	26,134058
971,000000	26,072112
970,000000	26,017167
969,000000	25,954872
968,000000	25,882614
967,000000	25,814665
966,000000	25,753276
965,000000	25,684349
964,000000	25,605691
963,000000	25,532345
962,000000	25,467696
961,000000	25,397725
960,000000	25,318768
959,000000	25,243817
958,000000	25,176186
957,000000	25,103709
956,000000	25,024466
955,000000	24,951057
954,000000	24,885326
953,000000	24,814353
952,000000	24,736792
951,000000	24,666080
950,000000	24,604227
949,000000	24,537844
948,000000	24,464833
947,000000	24,398225
946,000000	24,339951
945,000000	24,276898
944,000000	24,206857
943,000000	24,142662
942,000000	24,085875
941,000000	24,023029
940,000000	23,951238
939,000000	23,882995
938,000000	23,820712
937,000000	23,752823
936,000000	23,678196
935,000000	23,609649
934,000000	23,548832
933,000000	23,482901
932,000000	23,409786
931,000000	23,341714
930,000000	23,280501
929,000000	23,213804
928,000000	23,140193
927,000000	23,072301
926,000000	23,012130
925,000000	22,946949
924,000000	22,874217
923,000000	22,805415
922,000000	22,742091
921,000000	22,672100
920,000000	22,593611
919,000000	22,518769
918,000000	22,449096
917,000000	22,371554
916,000000	22,282521
915,000000	22,193172
914,000000	22,106731
913,000000	22,014134
912,000000	21,915553
911,000000	21,823921
910,000000	21,742397
909,000000	21,660718
908,000000	21,577000
907,000000	21,501327
906,000000	21,434567
905,000000	21,365585
904,000000	21,292612
903,000000	21,225548
902,000000	21,164630
901,000000	21,098053
900,000000	21,024536
899,000000	20,956018
898,000000	20,895832
897,000000	20,834490
896,000000	20,769890
895,000000	20,710239
894,000000	20,654582
893,000000	20,591483
892,000000	20,519406
891,000000	20,448209
890,000000	20,377820
889,000000	20,297021
888,000000	20,204590
887,000000	20,111275
886,000000	20,018240
885,000000	19,914691
884,000000	19,799407
883,000000	19,684210
882,000000	19,573433
881,000000	19,460474
880,000000	19,347602
879,000000	19,248937
878,000000	19,170666
877,000000	19,107145
876,000000	19,058409
875,000000	19,032642
874,000000	19,028144
873,000000	19,031615
872,000000	19,038231
871,000000	19,054161
870,000000	19,078326
869,000000	19,099034
868,000000	19,111579
867,000000	19,121441
866,000000	19,127821
865,000000	19,121995
864,000000	19,104105
863,000000	19,084802
862,000000	19,066887
861,000000	19,042539
860,000000	19,009854
859,000000	18,976281
858,000000	18,943409
857,000000	18,904360
856,000000	18,858603
855,000000	18,813981
854,000000	18,772519
853,000000	18,728809
852,000000	18,683693
851,000000	18,644816
850,000000	18,612830
849,000000	18,580900
848,000000	18,548351
847,000000	18,520652
846,000000	18,496117
845,000000	18,466710
844,000000	18,432086
843,000000	18,398841
842,000000	18,366490
841,000000	18,328026
840,000000	18,283466
839,000000	18,238632
838,000000	18,191388
837,000000	18,132737
836,000000	18,060774
835,000000	17,980008
834,000000	17,886975
833,000000	17,771803
832,000000	17,633138
831,000000	17,479523
830,000000	17,316303
829,000000	17,144222
828,000000	16,971337
827,000000	16,813832
826,000000	16,685708
825,000000	16,597154
824,000000	16,561510
823,000000	16,587694
822,000000	16,666067
821,000000	16,771686
820,000000	16,881883
819,000000	16,983157
818,000000	17,064188
817,000000	17,116980
816,000000	17,144577
815,000000	17,157200
814,000000	17,159591
813,000000	17,150574
812,000000	17,132142
811,000000	17,109214
810,000000	17,082295
809,000000	17,048879
808,000000	17,011209
807,000000	16,974010
806,000000	16,936747
805,000000	16,896401
804,000000	16,855496
803,000000	16,819621
802,000000	16,789082
801,000000	16,760650
800,000000	16,735240
799,000000	16,717050
798,000000	16,707078
797,000000	16,703408
796,000000	16,705654
795,000000	16,713722
794,000000	16,725521
793,000000	16,740294
792,000000	16,760671
791,000000	16,787416
790,000000	16,816015
789,000000	16,842249
788,000000	16,866427
787,000000	16,889066
786,000000	16,907730
785,000000	16,921491
784,000000	16,933069
783,000000	16,943554
782,000000	16,950486
781,000000	16,953222
780,000000	16,954504
779,000000	16,954973
778,000000	16,952328
777,000000	16,946963
776,000000	16,941739
775,000000	16,935823
774,000000	16,925704
773,000000	16,912201
772,000000	16,899038
771,000000	16,885257
770,000000	16,867179
769,000000	16,846560
768,000000	16,828069
767,000000	16,810421
766,000000	16,788870
765,000000	16,764460
764,000000	16,741440
763,000000	16,718430
762,000000	16,691779
761,000000	16,664206
760,000000	16,639995
759,000000	16,615900
758,000000	16,587085
757,000000	16,557019
756,000000	16,530715
755,000000	16,504364
754,000000	16,472963
753,000000	16,440899
752,000000	16,413123
751,000000	16,384142
750,000000	16,348520
749,000000	16,312561
748,000000	16,282321
747,000000	16,250811
746,000000	16,211461
745,000000	16,171600
744,000000	16,137472
743,000000	16,100206
742,000000	16,053867
741,000000	16,011475
740,000000	15,983664
739,000000	15,958168
738,000000	15,920995
737,000000	15,880587
736,000000	15,848253
735,000000	15,814404
734,000000	15,768387
733,000000	15,722208
732,000000	15,687898
731,000000	15,653011
730,000000	15,605861
729,000000	15,561266
728,000000	15,531750
727,000000	15,500490
726,000000	15,455450
725,000000	15,414557
724,000000	15,375991
723,000000	15,283324
722,000000	15,105064
721,000000	14,919483
720,000000	14,848763
719,000000	14,913901
718,000000	15,018283
717,000000	15,071416
716,000000	15,064983
715,000000	15,029545
714,000000	14,981345
713,000000	14,929646
712,000000	14,884873
711,000000	14,841636
710,000000	14,785548
709,000000	14,721432
708,000000	14,663432
707,000000	14,604737
706,000000	14,531398
705,000000	14,454634
704,000000	14,391386
703,000000	14,328105
702,000000	14,243840
701,000000	14,149597
700,000000	14,063565
699,000000	13,970562
698,000000	13,852652
697,000000	13,730564
696,000000	13,626348
695,000000	13,516147
694,000000	13,373895
693,000000	13,222206
692,000000	13,083048
691,000000	12,923722
690,000000	12,721350
689,000000	12,531921
688,000000	12,416121
687,000000	12,347534
686,000000	12,274851
685,000000	12,218468
684,000000	12,208055
683,000000	12,192708
682,000000	12,121257
681,000000	12,048873
680,000000	12,040427
679,000000	12,044406
678,000000	11,995757
677,000000	11,956693
676,000000	11,999553
675,000000	12,054313
674,000000	12,050648
673,000000	12,041064
672,000000	11,907868
671,000000	11,147788
670,000000	9,479709
669,000000	7,651333
668,000000	7,061752
667,000000	8,273819
666,000000	10,301268
665,000000	11,714865
664,000000	12,067285
663,000000	11,917014
662,000000	11,790846
661,000000	11,693694
660,000000	11,524523
659,000000	11,381202
658,000000	11,339014
657,000000	11,293343
656,000000	11,178654
655,000000	11,088862
654,000000	11,082315
653,000000	11,068854
652,000000	10,984240
651,000000	10,895797
650,000000	10,860760
649,000000	10,839741
648,000000	10,814219
647,000000	10,839669
646,000000	10,918073
645,000000	10,960488
644,000000	10,931371
643,000000	10,904999
642,000000	10,922866
641,000000	10,927421
640,000000	10,884123
639,000000	10,847426
638,000000	10,847344
637,000000	10,829619
636,000000	10,766143
635,000000	10,714230
634,000000	10,709288
633,000000	10,698849
632,000000	10,644431
631,000000	10,588126
630,000000	10,563474
629,000000	10,528540
628,000000	10,450488
627,000000	10,370131
626,000000	10,325340
625,000000	10,286038
624,000000	10,222351
623,000000	10,163207
622,000000	10,127286
621,000000	10,065112
620,000000	9,930898
619,000000	9,763508
618,000000	9,638283
617,000000	9,582311
616,000000	9,574462
615,000000	9,585962
614,000000	9,584312
613,000000	9,539276
612,000000	9,457709
611,000000	9,378120
610,000000	9,311342
609,000000	9,229293
608,000000	9,125077
607,000000	9,031683
606,000000	8,966389
605,000000	8,907555
604,000000	8,844598
603,000000	8,795781
602,000000	8,762181
601,000000	8,716434
600,000000	8,655266
599,000000	8,607941
598,000000	8,578896
597,000000	8,535546
596,000000	8,467277
595,000000	8,400624
594,000000	8,342389
593,000000	8,268236
592,000000	8,181230
591,000000	8,121601
590,000000	8,096421
589,000000	8,061377
588,000000	7,991303
587,000000	7,914242
586,000000	7,852996
585,000000	7,789834
584,000000	7,711697
583,000000	7,636792
582,000000	7,574461
581,000000	7,507135
580,000000	7,431082
579,000000	7,365000
578,000000	7,306104
577,000000	7,229221
576,000000	7,142914
575,000000	7,087229
574,000000	7,063421
573,000000	7,023237
572,000000	6,946376
571,000000	6,867511
570,000000	6,808464
569,000000	6,746635
568,000000	6,671481
567,000000	6,611690
566,000000	6,577314
565,000000	6,535348
564,000000	6,468784
563,000000	6,406673
562,000000	6,366106
561,000000	6,320953
560,000000	6,255266
559,000000	6,194536
558,000000	6,154084
557,000000	6,108545
556,000000	6,043487
555,000000	5,985228
554,000000	5,950051
553,000000	5,911335
552,000000	5,850470
551,000000	5,790743
550,000000	5,751002
549,000000	5,710380
548,000000	5,652380
547,000000	5,599081
546,000000	5,569607
545,000000	5,545754
544,000000	5,508913
543,000000	5,472224
542,000000	5,446369
541,000000	5,414290
540,000000	5,366257
539,000000	5,322587
538,000000	5,293779
537,000000	5,258945
536,000000	5,207539
535,000000	5,162774
534,000000	5,136715
533,000000	5,104975
532,000000	5,052763
531,000000	5,002724
530,000000	4,967812
529,000000	4,917899
528,000000	4,830237
527,000000	4,734573
526,000000	4,674321
525,000000	4,650440
524,000000	4,635577
523,000000	4,613942
522,000000	4,578855
521,000000	4,520303
520,000000	4,443448
519,000000	4,376250
518,000000	4,336264
517,000000	4,313258
516,000000	4,297504
515,000000	4,294631
514,000000	4,297518
513,000000	4,281259
512,000000	4,242627
511,000000	4,209000
510,000000	4,189005
509,000000	4,156656
508,000000	4,103097
507,000000	4,060404
506,000000	4,045801
505,000000	4,025671
504,000000	3,969945
503,000000	3,904050
502,000000	3,871338
501,000000	3,871151
500,000000	3,871479
499,000000	3,857249
498,000000	3,833264
497,000000	3,799696
496,000000	3,754682
495,000000	3,706540
494,000000	3,660869
493,000000	3,611147
492,000000	3,558029
491,000000	3,516846
490,000000	3,490441
489,000000	3,458151
488,000000	3,406264
487,000000	3,346765
486,000000	3,291342
485,000000	3,234558
484,000000	3,176452
483,000000	3,133555
482,000000	3,109556
481,000000	3,082237
480,000000	3,036619
479,000000	2,985861
478,000000	2,943876
477,000000	2,901584
476,000000	2,846242
475,000000	2,780490
474,000000	2,711488
473,000000	2,645421
472,000000	2,599634
471,000000	2,589816
470,000000	2,597736
469,000000	2,584323
468,000000	2,545381
467,000000	2,516279
466,000000	2,511529
465,000000	2,501857
464,000000	2,467730
463,000000	2,432995
462,000000	2,417252
461,000000	2,395142
460,000000	2,336474
459,000000	2,260625
458,000000	2,216737
457,000000	2,225503
456,000000	2,265127
455,000000	2,300276
454,000000	2,308385
453,000000	2,290904
452,000000	2,271053
451,000000	2,268226
450,000000	2,270868
449,000000	2,253618
448,000000	2,219015
447,000000	2,192896
446,000000	2,179302
445,000000	2,154814
444,000000	2,114152
443,000000	2,083343
442,000000	2,077058
441,000000	2,077264
440,000000	2,065171
439,000000	2,042607
438,000000	2,011924
437,000000	1,969479
436,000000	1,927729
435,000000	1,908510
434,000000	1,904724
433,000000	1,884979
432,000000	1,843660
431,000000	1,808636
430,000000	1,790324
429,000000	1,765574
428,000000	1,722416
427,000000	1,677514
426,000000	1,637926
425,000000	1,589171
424,000000	1,533243
423,000000	1,489586
422,000000	1,445460
421,000000	1,360460
420,000000	1,244121
419,000000	1,171583
418,000000	1,188964
417,000000	1,250483
416,000000	1,284240
415,000000	1,276645
414,000000	1,253993
413,000000	1,224310
412,000000	1,182460
411,000000	1,141011
410,000000	1,112874
409,000000	1,085398
408,000000	1,045112
407,000000	1,005046
406,000000	0,978812
405,000000	0,953158
404,000000	0,913672
403,000000	0,870839
402,000000	0,832943
401,000000	0,782285
400,000000	0,708464
399,000000	0,638509
398,000000	0,602389
397,000000	0,592077
396,000000	0,583151
395,000000	0,573405
394,000000	0,571233
393,000000	0,568418
392,000000	0,553863
391,000000	0,535142
390,000000	0,521268
389,000000	0,502752
388,000000	0,470882
387,000000	0,436799
386,000000	0,411608
385,000000	0,388906
384,000000	0,364626
383,000000	0,350166
382,000000	0,348013
381,000000	0,340164
380,000000	0,317429
379,000000	0,293883
378,000000	0,276033
377,000000	0,248874
376,000000	0,210366
375,000000	0,186768
374,000000	0,191142
373,000000	0,199140
372,000000	0,188265
371,000000	0,170845
370,000000	0,163662
369,000000	0,157831
368,000000	0,142786
367,000000	0,130328
366,000000	0,129155
365,000000	0,124912
364,000000	0,108325
363,000000	0,095569
362,000000	0,096337
361,000000	0,093123
360,000000	0,074813
359,000000	0,059610
358,000000	0,060339
357,000000	0,060129
356,000000	0,045073
355,000000	0,031609
354,000000	0,033335
353,000000	0,035386
352,000000	0,024679
351,000000	0,016405
350,000000	0,021894
349,000000	0,026208
348,000000	0,016075
347,000000	0,008283
346,000000	0,016053
345,000000	0,021665
344,000000	0,011492
343,000000	0,002099
342,000000	0,006871
341,000000	0,011888
340,000000	0,005859
339,000000	0,007349
338,000000	0,006108
337,000000	0,008979
336,000000	0,003973
335,000000	0,009693
334,000000	0,003430
333,000000	0,003764
332,000000	0,003769
331,000000	0,011301
330,000000	0,003421
329,000000	0,003051
328,000000	0,005650
327,000000	0,010587
326,000000	0,003318
325,000000	0,005454
324,000000	0,001758
323,000000	0,006799
322,000000	0,001012
321,000000	0,007176
320,000000	0,002271
319,000000	0,008657
318,000000	0,002152
317,000000	0,005968
316,000000	0,002815
315,000000	0,009979
314,000000	0,017063
313,000000	0,024339
312,000000	0,025216
311,000000	0,021339
310,000000	0,007214
309,000000	0,006475
308,000000	0,002885
307,000000	0,006872
306,000000	0,003050
305,000000	0,008749
304,000000	0,002452
303,000000	0,009075
302,000000	0,001645
301,000000	0,004344
300,000000	0,004916
299,000000	0,011983
298,000000	0,003507
297,000000	0,001846
296,000000	0,006568
295,000000	0,013769
294,000000	0,005214
293,000000	0,000850
292,000000	0,005856
291,000000	0,013039
290,000000	0,004728
289,000000	0,002829
288,000000	0,005852
287,000000	0,013436
286,000000	0,007123
285,000000	0,001523
284,000000	0,007098
283,000000	0,011879
282,000000	0,002557
281,000000	0,003250
280,000000	0,004466
279,000000	0,009052
278,000000	0,002755
277,000000	0,005120
276,000000	0,002993
275,000000	0,011574
274,000000	0,002795
273,000000	0,004511
272,000000	0,003986
271,000000	0,011134
270,000000	0,003961
269,000000	0,003211
268,000000	0,007190
267,000000	0,013221
266,000000	0,004536
265,000000	0,002833
264,000000	0,002791
263,000000	0,008383
262,000000	0,002428
261,000000	0,007651
260,000000	0,003390
259,000000	0,007619
258,000000	0,003203
257,000000	0,008667
256,000000	0,002868
255,000000	0,006343
254,000000	0,002369
253,000000	0,009584
252,000000	0,002031
251,000000	0,007564
250,000000	0,001896
249,000000	0,004233
248,000000	0,003648
247,000000	0,011406
246,000000	0,003218
245,000000	0,005214
244,000000	0,002540
243,000000	0,008203
242,000000	0,001341
241,000000	0,004482
240,000000	0,002237
239,000000	0,009363
238,000000	0,003254
237,000000	0,004011
236,000000	0,004526
235,000000	0,011222
234,000000	0,004256
233,000000	0,001498
232,000000	0,006293
231,000000	0,012076
230,000000	0,003759
229,000000	0,003983
228,000000	0,004269
227,000000	0,010224
226,000000	0,002785
225,000000	0,004729
224,000000	0,003287
223,000000	0,009478
222,000000	0,004993
221,000000	0,005264
220,000000	0,003158
219,000000	0,010800
218,000000	0,005549
217,000000	0,000859
216,000000	0,008501
215,000000	0,013332
214,000000	0,003196
213,000000	0,005452
212,000000	0,003151
211,000000	0,007235
210,000000	0,002072
209,000000	0,005656
208,000000	0,001633
207,000000	0,009896
206,000000	0,003513
205,000000	0,001163
204,000000	0,004784
203,000000	0,009272
202,000000	0,002662
201,000000	0,001873
200,000000	0,004331
