PE IR       SUBTECH     SPECTRUM    ASCII       PEDS        4.00        
   -1
water vapor with plate.ASC
25/04/22
09:44:22.00
25/04/22
09:44:22.00
Praktikum
Sample 017 By Praktikum date Dienstag, April 22 2025
200,000000
#HDR
-1
-1
#GR
cm-1
EGY
1.0
0.0
4000,000000
-1,000000
3801
8
63,336731
0,000502
#DATA
4000,000000	45,798460
3999,000000	45,805692
3998,000000	45,796813
3997,000000	45,780679
3996,000000	45,772823
3995,000000	45,780779
3994,000000	45,796751
3993,000000	45,809328
3992,000000	45,819980
3991,000000	45,842823
3990,000000	45,886747
3989,000000	45,942926
3988,000000	45,992607
3987,000000	46,023455
3986,000000	46,035573
3985,000000	46,036331
3984,000000	46,035340
3983,000000	46,042504
3982,000000	46,063213
3981,000000	46,091327
3980,000000	46,110329
3979,000000	46,105239
3978,000000	46,075577
3977,000000	46,037027
3976,000000	46,010785
3975,000000	46,010564
3974,000000	46,035553
3973,000000	46,073665
3972,000000	46,112723
3971,000000	46,150252
3970,000000	46,193504
3969,000000	46,249226
3968,000000	46,310878
3967,000000	46,354930
3966,000000	46,353415
3965,000000	46,297787
3964,000000	46,215656
3963,000000	46,157915
3962,000000	46,160127
3961,000000	46,214619
3960,000000	46,283207
3959,000000	46,335226
3958,000000	46,368966
3957,000000	46,397249
3956,000000	46,420670
3955,000000	46,418512
3954,000000	46,359672
3953,000000	46,222189
3952,000000	46,015490
3951,000000	45,797294
3950,000000	45,660712
3949,000000	45,676269
3948,000000	45,819079
3947,000000	45,956947
3946,000000	45,950308
3945,000000	45,789830
3944,000000	45,631764
3943,000000	45,665111
3942,000000	45,930412
3941,000000	46,291657
3940,000000	46,584025
3939,000000	46,747184
3938,000000	46,796082
3937,000000	46,711195
3936,000000	46,433896
3935,000000	45,983412
3934,000000	45,521626
3933,000000	45,264475
3932,000000	45,326365
3931,000000	45,648920
3930,000000	46,042905
3929,000000	46,289437
3928,000000	46,267831
3927,000000	46,044504
3926,000000	45,826100
3925,000000	45,784659
3924,000000	45,901346
3923,000000	45,996549
3922,000000	45,903069
3921,000000	45,598268
3920,000000	45,206152
3919,000000	44,923009
3918,000000	44,935832
3917,000000	45,322158
3916,000000	45,975347
3915,000000	46,650374
3914,000000	47,129251
3913,000000	47,365556
3912,000000	47,453313
3911,000000	47,466403
3910,000000	47,342103
3909,000000	46,908886
3908,000000	46,024259
3907,000000	44,729417
3906,000000	43,306785
3905,000000	42,152579
3904,000000	41,521265
3903,000000	41,387042
3902,000000	41,582116
3901,000000	42,045641
3900,000000	42,868491
3899,000000	44,063739
3898,000000	45,379086
3897,000000	46,383064
3896,000000	46,717551
3895,000000	46,285706
3894,000000	45,329596
3893,000000	44,402644
3892,000000	44,096720
3891,000000	44,543052
3890,000000	45,159765
3889,000000	45,145461
3888,000000	44,312146
3887,000000	43,345902
3886,000000	43,081614
3885,000000	43,614768
3884,000000	44,272877
3883,000000	44,428396
3882,000000	44,180927
3881,000000	44,171836
3880,000000	44,806172
3879,000000	45,777888
3878,000000	46,376298
3877,000000	46,212444
3876,000000	45,556723
3875,000000	44,894429
3874,000000	44,297824
3873,000000	43,453478
3872,000000	42,337608
3871,000000	41,555244
3870,000000	41,729406
3869,000000	42,686898
3868,000000	43,566334
3867,000000	43,749839
3866,000000	43,453007
3865,000000	43,331445
3864,000000	43,734742
3863,000000	44,524968
3862,000000	45,407582
3861,000000	46,173964
3860,000000	46,585701
3859,000000	46,215112
3858,000000	44,585429
3857,000000	41,603065
3856,000000	37,973330
3855,000000	35,120110
3854,000000	34,403963
3853,000000	36,166004
3852,000000	39,496799
3851,000000	42,965588
3850,000000	45,584797
3849,000000	47,104846
3848,000000	47,673552
3847,000000	47,495583
3846,000000	46,829116
3845,000000	46,011336
3844,000000	45,281971
3843,000000	44,595793
3842,000000	43,708658
3841,000000	42,496236
3840,000000	41,210200
3839,000000	40,394716
3838,000000	40,498259
3837,000000	41,480142
3836,000000	42,808972
3835,000000	43,896144
3834,000000	44,549363
3833,000000	45,008366
3832,000000	45,568725
3831,000000	46,240184
3830,000000	46,766918
3829,000000	46,956779
3828,000000	46,913811
3827,000000	46,859302
3826,000000	46,707522
3825,000000	45,985358
3824,000000	44,417140
3823,000000	42,562597
3822,000000	41,533027
3821,000000	41,864097
3820,000000	42,833411
3819,000000	43,244940
3818,000000	42,797801
3817,000000	42,407412
3816,000000	43,106293
3815,000000	44,914551
3814,000000	46,957777
3813,000000	48,374998
3812,000000	48,838883
3811,000000	48,347569
3810,000000	47,040745
3809,000000	45,404347
3808,000000	44,287576
3807,000000	44,241719
3806,000000	44,806583
3805,000000	44,834778
3804,000000	43,740569
3803,000000	42,270721
3802,000000	41,767824
3801,000000	42,733998
3800,000000	44,394980
3799,000000	45,660036
3798,000000	46,241838
3797,000000	46,641238
3796,000000	47,329619
3795,000000	48,243709
3794,000000	49,031218
3793,000000	49,491742
3792,000000	49,675589
3791,000000	49,716651
3790,000000	49,688925
3789,000000	49,582009
3788,000000	49,360954
3787,000000	49,073297
3786,000000	48,870796
3785,000000	48,859328
3784,000000	48,911704
3783,000000	48,743174
3782,000000	48,240733
3781,000000	47,669796
3780,000000	47,477217
3779,000000	47,873028
3778,000000	48,648151
3777,000000	49,393788
3776,000000	49,830832
3775,000000	49,878230
3774,000000	49,489270
3773,000000	48,629208
3772,000000	47,509702
3771,000000	46,651346
3770,000000	46,464810
3769,000000	46,810432
3768,000000	47,195549
3767,000000	47,413282
3766,000000	47,709403
3765,000000	48,247782
3764,000000	48,693578
3763,000000	48,576315
3762,000000	47,880634
3761,000000	47,065903
3760,000000	46,601119
3759,000000	46,643776
3758,000000	47,017210
3757,000000	47,242614
3756,000000	46,692724
3755,000000	45,037152
3754,000000	42,603372
3753,000000	40,202524
3752,000000	38,635032
3751,000000	38,364188
3750,000000	39,315159
3749,000000	40,658142
3748,000000	41,089858
3747,000000	39,961095
3746,000000	38,222122
3745,000000	37,746973
3744,000000	39,463877
3743,000000	42,461081
3742,000000	45,012693
3741,000000	46,062715
3740,000000	45,588375
3739,000000	44,067320
3738,000000	42,150618
3737,000000	40,605010
3736,000000	39,970902
3735,000000	40,199419
3734,000000	40,912124
3733,000000	41,962938
3732,000000	43,409021
3731,000000	44,989920
3730,000000	46,061824
3729,000000	46,242326
3728,000000	45,840140
3727,000000	45,470935
3726,000000	45,428761
3725,000000	45,597115
3724,000000	45,825134
3723,000000	46,148192
3722,000000	46,649418
3721,000000	47,295944
3720,000000	47,981396
3719,000000	48,630515
3718,000000	49,145044
3717,000000	49,260727
3716,000000	48,606388
3715,000000	47,062094
3714,000000	45,066012
3713,000000	43,448940
3712,000000	42,874945
3711,000000	43,426029
3710,000000	44,712990
3709,000000	46,246778
3708,000000	47,636766
3707,000000	48,581529
3706,000000	48,866324
3705,000000	48,490401
3704,000000	47,752377
3703,000000	47,155789
3702,000000	47,132412
3701,000000	47,731268
3700,000000	48,580280
3699,000000	49,224613
3698,000000	49,517332
3697,000000	49,597161
3696,000000	49,519942
3695,000000	49,091595
3694,000000	48,116055
3693,000000	46,637754
3692,000000	44,900895
3691,000000	43,288660
3690,000000	42,378456
3689,000000	42,764219
3688,000000	44,512760
3687,000000	46,899012
3686,000000	48,939543
3685,000000	50,135829
3684,000000	50,581393
3683,000000	50,528808
3682,000000	50,123868
3681,000000	49,414031
3680,000000	48,275984
3679,000000	46,418572
3678,000000	43,916312
3677,000000	41,716235
3676,000000	41,087469
3675,000000	42,233098
3674,000000	43,839125
3673,000000	44,399685
3672,000000	43,797133
3671,000000	43,282929
3670,000000	44,013202
3669,000000	45,964550
3668,000000	48,253628
3667,000000	50,078540
3666,000000	51,178014
3665,000000	51,678057
3664,000000	51,819552
3663,000000	51,825513
3662,000000	51,785684
3661,000000	51,556702
3660,000000	50,865669
3659,000000	49,654971
3658,000000	48,368391
3657,000000	47,726191
3656,000000	48,021513
3655,000000	48,638022
3654,000000	48,440764
3653,000000	46,823542
3652,000000	44,304031
3651,000000	42,083032
3650,000000	41,128668
3649,000000	41,695415
3648,000000	43,481996
3647,000000	45,903158
3646,000000	48,244165
3645,000000	49,915292
3644,000000	50,769461
3643,000000	51,088722
3642,000000	51,208602
3641,000000	51,245566
3640,000000	51,197197
3639,000000	51,100226
3638,000000	50,953731
3637,000000	50,657670
3636,000000	50,192467
3635,000000	49,699019
3634,000000	49,145025
3633,000000	48,062545
3632,000000	46,017429
3631,000000	43,451520
3630,000000	41,699951
3629,000000	41,896749
3628,000000	43,917448
3627,000000	46,568374
3626,000000	48,667625
3625,000000	49,754934
3624,000000	49,885705
3623,000000	49,208345
3622,000000	47,962915
3621,000000	46,677092
3620,000000	46,012365
3619,000000	46,289839
3618,000000	47,206365
3617,000000	48,085330
3616,000000	48,435676
3615,000000	48,285470
3614,000000	47,997561
3613,000000	47,808860
3612,000000	47,624412
3611,000000	47,290917
3610,000000	46,967153
3609,000000	47,061975
3608,000000	47,786216
3607,000000	48,892327
3606,000000	49,892765
3605,000000	50,453792
3604,000000	50,540768
3603,000000	50,316278
3602,000000	50,013320
3601,000000	49,829284
3600,000000	49,803648
3599,000000	49,793273
3598,000000	49,639856
3597,000000	49,367927
3596,000000	49,184338
3595,000000	49,280894
3594,000000	49,642420
3593,000000	49,994526
3592,000000	49,930216
3591,000000	49,197728
3590,000000	48,003536
3589,000000	46,992039
3588,000000	46,799323
3587,000000	47,562498
3586,000000	48,871786
3585,000000	50,154261
3584,000000	51,052274
3583,000000	51,514058
3582,000000	51,673432
3581,000000	51,707734
3580,000000	51,737493
3579,000000	51,788567
3578,000000	51,834084
3577,000000	51,868327
3576,000000	51,919734
3575,000000	52,002656
3574,000000	52,078462
3573,000000	52,034401
3572,000000	51,675073
3571,000000	50,817919
3570,000000	49,523746
3569,000000	48,236570
3568,000000	47,558763
3567,000000	47,803024
3566,000000	48,760438
3565,000000	49,913662
3564,000000	50,828650
3563,000000	51,368552
3562,000000	51,633427
3561,000000	51,795395
3560,000000	51,969441
3559,000000	52,167833
3558,000000	52,327557
3557,000000	52,369420
3556,000000	52,249232
3555,000000	51,994751
3554,000000	51,726316
3553,000000	51,604581
3552,000000	51,685496
3551,000000	51,823991
3550,000000	51,782810
3549,000000	51,472214
3548,000000	51,051339
3547,000000	50,784548
3546,000000	50,827392
3545,000000	51,152879
3544,000000	51,620898
3543,000000	52,075189
3542,000000	52,404937
3541,000000	52,566424
3540,000000	52,571265
3539,000000	52,465246
3538,000000	52,327793
3537,000000	52,260594
3536,000000	52,321099
3535,000000	52,457242
3534,000000	52,542352
3533,000000	52,489139
3532,000000	52,306414
3531,000000	52,056729
3530,000000	51,806114
3529,000000	51,618699
3528,000000	51,536110
3527,000000	51,532630
3526,000000	51,539327
3525,000000	51,541330
3524,000000	51,610322
3523,000000	51,802643
3522,000000	52,065028
3521,000000	52,285412
3520,000000	52,413561
3519,000000	52,483697
3518,000000	52,538915
3517,000000	52,582394
3516,000000	52,599748
3515,000000	52,581940
3514,000000	52,514227
3513,000000	52,378801
3512,000000	52,194201
3511,000000	52,037819
3510,000000	51,998587
3509,000000	52,091008
3508,000000	52,215565
3507,000000	52,225851
3506,000000	52,059179
3505,000000	51,808480
3504,000000	51,651328
3503,000000	51,698528
3502,000000	51,913228
3501,000000	52,162568
3500,000000	52,329400
3499,000000	52,376493
3498,000000	52,344193
3497,000000	52,308684
3496,000000	52,326736
3495,000000	52,397830
3494,000000	52,475432
3493,000000	52,515176
3492,000000	52,502047
3491,000000	52,441546
3490,000000	52,353588
3489,000000	52,280969
3488,000000	52,268273
3487,000000	52,309448
3486,000000	52,336553
3485,000000	52,286592
3484,000000	52,172578
3483,000000	52,074729
3482,000000	52,066960
3481,000000	52,162114
3480,000000	52,311508
3479,000000	52,440974
3478,000000	52,499506
3477,000000	52,492721
3476,000000	52,470933
3475,000000	52,477071
3474,000000	52,512111
3473,000000	52,551475
3472,000000	52,576960
3471,000000	52,582187
3470,000000	52,565223
3469,000000	52,535532
3468,000000	52,516782
3467,000000	52,523201
3466,000000	52,538828
3465,000000	52,536601
3464,000000	52,515064
3463,000000	52,502218
3462,000000	52,523691
3461,000000	52,578493
3460,000000	52,644537
3459,000000	52,699207
3458,000000	52,734534
3457,000000	52,758377
3456,000000	52,781967
3455,000000	52,806883
3454,000000	52,828199
3453,000000	52,841443
3452,000000	52,830794
3451,000000	52,757370
3450,000000	52,594501
3449,000000	52,388992
3448,000000	52,255535
3447,000000	52,275236
3446,000000	52,410538
3445,000000	52,551186
3444,000000	52,633528
3443,000000	52,684619
3442,000000	52,753439
3441,000000	52,840942
3440,000000	52,914527
3439,000000	52,959745
3438,000000	52,990288
3437,000000	53,019896
3436,000000	53,048347
3435,000000	53,072081
3434,000000	53,092409
3433,000000	53,112547
3432,000000	53,136289
3431,000000	53,169417
3430,000000	53,214800
3429,000000	53,267030
3428,000000	53,317144
3427,000000	53,358858
3426,000000	53,383413
3425,000000	53,374282
3424,000000	53,321407
3423,000000	53,245368
3422,000000	53,196446
3421,000000	53,219639
3420,000000	53,318506
3419,000000	53,453779
3418,000000	53,574973
3417,000000	53,653434
3416,000000	53,691689
3415,000000	53,709939
3414,000000	53,726303
3413,000000	53,746726
3412,000000	53,768496
3411,000000	53,788658
3410,000000	53,807147
3409,000000	53,824419
3408,000000	53,839943
3407,000000	53,852580
3406,000000	53,860488
3405,000000	53,862241
3404,000000	53,861267
3403,000000	53,866660
3402,000000	53,883013
3401,000000	53,901232
3400,000000	53,908720
3399,000000	53,909941
3398,000000	53,924901
3397,000000	53,960239
3396,000000	53,993780
3395,000000	54,001949
3394,000000	53,996522
3393,000000	54,017440
3392,000000	54,087213
3391,000000	54,185052
3390,000000	54,269744
3389,000000	54,316688
3388,000000	54,328136
3387,000000	54,321151
3386,000000	54,316609
3385,000000	54,332450
3384,000000	54,373406
3383,000000	54,426330
3382,000000	54,472395
3381,000000	54,504386
3380,000000	54,528390
3379,000000	54,551212
3378,000000	54,573180
3377,000000	54,593009
3376,000000	54,612696
3375,000000	54,634202
3374,000000	54,654502
3373,000000	54,666936
3372,000000	54,666611
3371,000000	54,653330
3370,000000	54,631129
3369,000000	54,607132
3368,000000	54,590908
3367,000000	54,591967
3366,000000	54,614005
3365,000000	54,650258
3364,000000	54,687752
3363,000000	54,718725
3362,000000	54,746456
3361,000000	54,777188
3360,000000	54,808639
3359,000000	54,831817
3358,000000	54,844273
3357,000000	54,855804
3356,000000	54,877979
3355,000000	54,911390
3354,000000	54,946274
3353,000000	54,973693
3352,000000	54,993343
3351,000000	55,011166
3350,000000	55,031998
3349,000000	55,055437
3348,000000	55,077850
3347,000000	55,096767
3346,000000	55,112182
3345,000000	55,124688
3344,000000	55,134875
3343,000000	55,144446
3342,000000	55,154348
3341,000000	55,160211
3340,000000	55,154276
3339,000000	55,136097
3338,000000	55,119066
3337,000000	55,121620
3336,000000	55,151586
3335,000000	55,201013
3334,000000	55,254519
3333,000000	55,299561
3332,000000	55,330253
3331,000000	55,346364
3330,000000	55,350887
3329,000000	55,348137
3328,000000	55,343938
3327,000000	55,346213
3326,000000	55,361568
3325,000000	55,389646
3324,000000	55,423398
3323,000000	55,455952
3322,000000	55,484440
3321,000000	55,507541
3320,000000	55,524665
3319,000000	55,538833
3318,000000	55,553913
3317,000000	55,566670
3316,000000	55,568960
3315,000000	55,561175
3314,000000	55,555026
3313,000000	55,557244
3312,000000	55,559431
3311,000000	55,553454
3310,000000	55,549774
3309,000000	55,567782
3308,000000	55,611208
3307,000000	55,663991
3306,000000	55,709604
3305,000000	55,745103
3304,000000	55,775395
3303,000000	55,803041
3302,000000	55,826251
3301,000000	55,841381
3300,000000	55,846594
3299,000000	55,846786
3298,000000	55,852335
3297,000000	55,867196
3296,000000	55,881139
3295,000000	55,881667
3294,000000	55,871955
3293,000000	55,869036
3292,000000	55,884714
3291,000000	55,915804
3290,000000	55,953369
3289,000000	55,991911
3288,000000	56,027226
3287,000000	56,053487
3286,000000	56,067786
3285,000000	56,074332
3284,000000	56,080708
3283,000000	56,091458
3282,000000	56,105647
3281,000000	56,117926
3280,000000	56,121470
3279,000000	56,112807
3278,000000	56,094857
3277,000000	56,075237
3276,000000	56,063116
3275,000000	56,067573
3274,000000	56,094135
3273,000000	56,139423
3272,000000	56,192061
3271,000000	56,241439
3270,000000	56,283154
3269,000000	56,315172
3268,000000	56,335091
3267,000000	56,345366
3266,000000	56,355085
3265,000000	56,370702
3264,000000	56,388903
3263,000000	56,403309
3262,000000	56,413739
3261,000000	56,423547
3260,000000	56,432228
3259,000000	56,436364
3258,000000	56,434935
3257,000000	56,430118
3256,000000	56,427204
3255,000000	56,436519
3254,000000	56,467823
3253,000000	56,517142
3252,000000	56,565966
3251,000000	56,598703
3250,000000	56,613288
3249,000000	56,611085
3248,000000	56,589237
3247,000000	56,554871
3246,000000	56,534846
3245,000000	56,554007
3244,000000	56,606404
3243,000000	56,662010
3242,000000	56,700049
3241,000000	56,722231
3240,000000	56,737189
3239,000000	56,747482
3238,000000	56,754683
3237,000000	56,763535
3236,000000	56,775335
3235,000000	56,785966
3234,000000	56,794325
3233,000000	56,805226
3232,000000	56,820987
3231,000000	56,837513
3230,000000	56,852196
3229,000000	56,869683
3228,000000	56,895713
3227,000000	56,929420
3226,000000	56,963946
3225,000000	56,991073
3224,000000	57,003436
3223,000000	56,997470
3222,000000	56,979153
3221,000000	56,965188
3220,000000	56,972723
3219,000000	57,003398
3218,000000	57,038194
3217,000000	57,054247
3216,000000	57,049650
3215,000000	57,046951
3214,000000	57,066050
3213,000000	57,099241
3212,000000	57,124061
3211,000000	57,136104
3210,000000	57,154629
3209,000000	57,193054
3208,000000	57,240512
3207,000000	57,278710
3206,000000	57,304270
3205,000000	57,324539
3204,000000	57,342044
3203,000000	57,353398
3202,000000	57,356165
3201,000000	57,348764
3200,000000	57,331598
3199,000000	57,316042
3198,000000	57,322693
3197,000000	57,360577
3196,000000	57,414490
3195,000000	57,461908
3194,000000	57,495556
3193,000000	57,521137
3192,000000	57,542342
3191,000000	57,558716
3190,000000	57,571775
3189,000000	57,581721
3188,000000	57,583629
3187,000000	57,577327
3186,000000	57,575807
3185,000000	57,593140
3184,000000	57,626413
3183,000000	57,657781
3182,000000	57,670891
3181,000000	57,661484
3180,000000	57,639198
3179,000000	57,626492
3178,000000	57,645824
3177,000000	57,697188
3176,000000	57,754758
3175,000000	57,793976
3174,000000	57,815045
3173,000000	57,831464
3172,000000	57,847214
3171,000000	57,858158
3170,000000	57,867307
3169,000000	57,882573
3168,000000	57,903297
3167,000000	57,922456
3166,000000	57,939152
3165,000000	57,957592
3164,000000	57,976987
3163,000000	57,993615
3162,000000	58,009432
3161,000000	58,028199
3160,000000	58,046769
3159,000000	58,060416
3158,000000	58,072609
3157,000000	58,088919
3156,000000	58,105453
3155,000000	58,114739
3154,000000	58,119677
3153,000000	58,130631
3152,000000	58,150942
3151,000000	58,175537
3150,000000	58,200960
3149,000000	58,226969
3148,000000	58,250357
3147,000000	58,267087
3146,000000	58,278997
3145,000000	58,290719
3144,000000	58,302465
3143,000000	58,312837
3142,000000	58,324952
3141,000000	58,342275
3140,000000	58,362449
3139,000000	58,381680
3138,000000	58,398985
3137,000000	58,409554
3136,000000	58,403125
3135,000000	58,381020
3134,000000	58,366984
3133,000000	58,386194
3132,000000	58,435150
3131,000000	58,484753
3130,000000	58,511800
3129,000000	58,517735
3128,000000	58,517105
3127,000000	58,518827
3126,000000	58,520983
3125,000000	58,517682
3124,000000	58,509056
3123,000000	58,505213
3122,000000	58,516602
3121,000000	58,538711
3120,000000	58,554089
3119,000000	58,554068
3118,000000	58,550403
3117,000000	58,560226
3116,000000	58,587893
3115,000000	58,628079
3114,000000	58,675483
3113,000000	58,722473
3112,000000	58,756573
3111,000000	58,772758
3110,000000	58,781804
3109,000000	58,796920
3108,000000	58,818089
3107,000000	58,837302
3106,000000	58,850081
3105,000000	58,852441
3104,000000	58,838063
3103,000000	58,812208
3102,000000	58,799506
3101,000000	58,820318
3100,000000	58,863537
3099,000000	58,897562
3098,000000	58,907527
3097,000000	58,909086
3096,000000	58,926593
3095,000000	58,968919
3094,000000	59,026051
3093,000000	59,079884
3092,000000	59,116694
3091,000000	59,135791
3090,000000	59,146318
3089,000000	59,154731
3088,000000	59,160246
3087,000000	59,164010
3086,000000	59,172279
3085,000000	59,184285
3084,000000	59,187814
3083,000000	59,175812
3082,000000	59,158904
3081,000000	59,152784
3080,000000	59,161937
3079,000000	59,184318
3078,000000	59,221120
3077,000000	59,269585
3076,000000	59,315071
3075,000000	59,344104
3074,000000	59,359343
3073,000000	59,370211
3072,000000	59,374844
3071,000000	59,363167
3070,000000	59,332649
3069,000000	59,290566
3068,000000	59,246754
3067,000000	59,214399
3066,000000	59,210399
3065,000000	59,241637
3064,000000	59,294156
3063,000000	59,345813
3062,000000	59,384799
3061,000000	59,407784
3060,000000	59,409992
3059,000000	59,392633
3058,000000	59,374389
3057,000000	59,380029
3056,000000	59,416834
3055,000000	59,470363
3054,000000	59,519864
3053,000000	59,550066
3052,000000	59,554750
3051,000000	59,542327
3050,000000	59,534714
3049,000000	59,549266
3048,000000	59,582121
3047,000000	59,615935
3046,000000	59,640026
3045,000000	59,655028
3044,000000	59,663985
3043,000000	59,669543
3042,000000	59,676891
3041,000000	59,688954
3040,000000	59,699794
3039,000000	59,699961
3038,000000	59,687032
3037,000000	59,664784
3036,000000	59,635482
3035,000000	59,599614
3034,000000	59,561942
3033,000000	59,533530
3032,000000	59,527674
3031,000000	59,551973
3030,000000	59,597229
3029,000000	59,635432
3028,000000	59,640554
3027,000000	59,614203
3026,000000	59,581091
3025,000000	59,557485
3024,000000	59,537560
3023,000000	59,512578
3022,000000	59,485451
3021,000000	59,458548
3020,000000	59,425168
3019,000000	59,385681
3018,000000	59,358428
3017,000000	59,360323
3016,000000	59,387663
3015,000000	59,427847
3014,000000	59,479789
3013,000000	59,549687
3012,000000	59,635934
3011,000000	59,730878
3010,000000	59,828224
3009,000000	59,918016
3008,000000	59,983538
3007,000000	60,017615
3006,000000	60,034850
3005,000000	60,056090
3004,000000	60,086668
3003,000000	60,118723
3002,000000	60,146665
3001,000000	60,168763
3000,000000	60,181916
2999,000000	60,185677
2998,000000	60,185924
2997,000000	60,186105
2996,000000	60,182440
2995,000000	60,175444
2994,000000	60,175815
2993,000000	60,188901
2992,000000	60,203194
2991,000000	60,205007
2990,000000	60,196424
2989,000000	60,188337
2988,000000	60,184251
2987,000000	60,181018
2986,000000	60,177095
2985,000000	60,169642
2984,000000	60,151082
2983,000000	60,118436
2982,000000	60,079543
2981,000000	60,042435
2980,000000	60,006073
2979,000000	59,967717
2978,000000	59,928503
2977,000000	59,885180
2976,000000	59,827871
2975,000000	59,754815
2974,000000	59,677501
2973,000000	59,602018
2972,000000	59,517917
2971,000000	59,415134
2970,000000	59,300029
2969,000000	59,184194
2968,000000	59,069804
2967,000000	58,957395
2966,000000	58,855773
2965,000000	58,771904
2964,000000	58,700823
2963,000000	58,636967
2962,000000	58,585089
2961,000000	58,549605
2960,000000	58,524278
2959,000000	58,502833
2958,000000	58,488814
2957,000000	58,484069
2956,000000	58,479833
2955,000000	58,470492
2954,000000	58,463856
2953,000000	58,465867
2952,000000	58,466527
2951,000000	58,453785
2950,000000	58,429637
2949,000000	58,400394
2948,000000	58,362119
2947,000000	58,308755
2946,000000	58,244310
2945,000000	58,173869
2944,000000	58,092760
2943,000000	57,995906
2942,000000	57,888473
2941,000000	57,776193
2940,000000	57,656371
2939,000000	57,529574
2938,000000	57,408442
2937,000000	57,303052
2936,000000	57,208259
2935,000000	57,116349
2934,000000	57,030143
2933,000000	56,951995
2932,000000	56,873353
2931,000000	56,788631
2930,000000	56,708265
2929,000000	56,645483
2928,000000	56,601673
2927,000000	56,577315
2926,000000	56,584042
2925,000000	56,632707
2924,000000	56,719916
2923,000000	56,839058
2922,000000	56,992332
2921,000000	57,178442
2920,000000	57,381602
2919,000000	57,586041
2918,000000	57,791106
2917,000000	57,998335
2916,000000	58,197029
2915,000000	58,376961
2914,000000	58,543140
2913,000000	58,703322
2912,000000	58,851708
2911,000000	58,979795
2910,000000	59,092252
2909,000000	59,197734
2908,000000	59,294420
2907,000000	59,378836
2906,000000	59,458216
2905,000000	59,539783
2904,000000	59,618105
2903,000000	59,686683
2902,000000	59,751461
2901,000000	59,819336
2900,000000	59,884076
2899,000000	59,937756
2898,000000	59,985573
2897,000000	60,035637
2896,000000	60,084750
2895,000000	60,127826
2894,000000	60,170557
2893,000000	60,218661
2892,000000	60,264920
2891,000000	60,300653
2890,000000	60,329898
2889,000000	60,359180
2888,000000	60,383952
2887,000000	60,398329
2886,000000	60,407406
2885,000000	60,416654
2884,000000	60,419871
2883,000000	60,410733
2882,000000	60,395286
2881,000000	60,380009
2880,000000	60,358806
2879,000000	60,324678
2878,000000	60,282734
2877,000000	60,238669
2876,000000	60,186507
2875,000000	60,121119
2874,000000	60,050631
2873,000000	59,982354
2872,000000	59,908180
2871,000000	59,817458
2870,000000	59,712649
2869,000000	59,598656
2868,000000	59,470030
2867,000000	59,323541
2866,000000	59,172311
2865,000000	59,032212
2864,000000	58,906156
2863,000000	58,794993
2862,000000	58,711467
2861,000000	58,667787
2860,000000	58,659914
2859,000000	58,678179
2858,000000	58,722459
2857,000000	58,792819
2856,000000	58,878097
2855,000000	58,968977
2854,000000	59,071547
2853,000000	59,193409
2852,000000	59,327964
2851,000000	59,466025
2850,000000	59,611256
2849,000000	59,768873
2848,000000	59,930606
2847,000000	60,085709
2846,000000	60,235568
2845,000000	60,383454
2844,000000	60,521403
2843,000000	60,641595
2842,000000	60,749901
2841,000000	60,854030
2840,000000	60,949766
2839,000000	61,032499
2838,000000	61,109858
2837,000000	61,188747
2836,000000	61,261992
2835,000000	61,322230
2834,000000	61,376666
2833,000000	61,433807
2832,000000	61,487822
2831,000000	61,530947
2830,000000	61,569110
2829,000000	61,610498
2828,000000	61,650596
2827,000000	61,683106
2826,000000	61,713890
2825,000000	61,749248
2824,000000	61,782482
2823,000000	61,806551
2822,000000	61,828113
2821,000000	61,855013
2820,000000	61,881694
2819,000000	61,901162
2818,000000	61,918741
2817,000000	61,940131
2816,000000	61,958634
2815,000000	61,968570
2814,000000	61,978293
2813,000000	61,995345
2812,000000	62,012103
2811,000000	62,020269
2810,000000	62,026463
2809,000000	62,038386
2808,000000	62,049319
2807,000000	62,051757
2806,000000	62,052764
2805,000000	62,060387
2804,000000	62,067949
2803,000000	62,067437
2802,000000	62,065440
2801,000000	62,070063
2800,000000	62,075349
2799,000000	62,074365
2798,000000	62,074571
2797,000000	62,084439
2796,000000	62,097314
2795,000000	62,104533
2794,000000	62,111627
2793,000000	62,125885
2792,000000	62,141159
2791,000000	62,150693
2790,000000	62,162327
2789,000000	62,184936
2788,000000	62,212041
2787,000000	62,234618
2786,000000	62,257289
2785,000000	62,286423
2784,000000	62,315279
2783,000000	62,336310
2782,000000	62,355616
2781,000000	62,379768
2780,000000	62,401412
2779,000000	62,413381
2778,000000	62,423596
2777,000000	62,440553
2776,000000	62,457470
2775,000000	62,466397
2774,000000	62,474215
2773,000000	62,489018
2772,000000	62,504118
2771,000000	62,511680
2770,000000	62,518510
2769,000000	62,532128
2768,000000	62,545111
2767,000000	62,549331
2766,000000	62,552139
2765,000000	62,562130
2764,000000	62,572545
2763,000000	62,575056
2762,000000	62,576421
2761,000000	62,584997
2760,000000	62,594234
2759,000000	62,596140
2758,000000	62,597632
2757,000000	62,607091
2756,000000	62,617952
2755,000000	62,621841
2754,000000	62,624396
2753,000000	62,632446
2752,000000	62,639234
2751,000000	62,638347
2750,000000	62,638292
2749,000000	62,647052
2748,000000	62,656366
2747,000000	62,657490
2746,000000	62,658121
2745,000000	62,667135
2744,000000	62,677143
2743,000000	62,679045
2742,000000	62,679477
2741,000000	62,686820
2740,000000	62,694441
2739,000000	62,694722
2738,000000	62,695422
2737,000000	62,704831
2736,000000	62,715095
2735,000000	62,717262
2734,000000	62,718644
2733,000000	62,728156
2732,000000	62,738702
2731,000000	62,741366
2730,000000	62,742785
2729,000000	62,751327
2728,000000	62,760284
2727,000000	62,761786
2726,000000	62,763162
2725,000000	62,772332
2724,000000	62,781685
2723,000000	62,783286
2722,000000	62,785311
2721,000000	62,796050
2720,000000	62,806829
2719,000000	62,808449
2718,000000	62,809308
2717,000000	62,819300
2716,000000	62,830647
2715,000000	62,833218
2714,000000	62,833727
2713,000000	62,841510
2712,000000	62,849659
2711,000000	62,849148
2710,000000	62,847226
2709,000000	62,853520
2708,000000	62,861720
2707,000000	62,863209
2706,000000	62,864745
2705,000000	62,874675
2704,000000	62,885841
2703,000000	62,889835
2702,000000	62,893962
2701,000000	62,906429
2700,000000	62,919517
2699,000000	62,924882
2698,000000	62,930604
2697,000000	62,945106
2696,000000	62,959650
2695,000000	62,964899
2694,000000	62,969483
2693,000000	62,983365
2692,000000	62,998282
2691,000000	63,003415
2690,000000	63,005688
2689,000000	63,015184
2688,000000	63,025436
2687,000000	63,027247
2686,000000	63,027512
2685,000000	63,035338
2684,000000	63,043739
2683,000000	63,043934
2682,000000	63,043176
2681,000000	63,050154
2680,000000	63,057361
2679,000000	63,056305
2678,000000	63,055100
2677,000000	63,062603
2676,000000	63,070436
2675,000000	63,069314
2674,000000	63,067714
2673,000000	63,075397
2672,000000	63,083985
2671,000000	63,083149
2670,000000	63,080719
2669,000000	63,086927
2668,000000	63,094312
2667,000000	63,092868
2666,000000	63,090059
2665,000000	63,096058
2664,000000	63,103929
2663,000000	63,103904
2662,000000	63,102664
2661,000000	63,109085
2660,000000	63,115624
2659,000000	63,113332
2658,000000	63,110402
2657,000000	63,116763
2656,000000	63,125049
2655,000000	63,125920
2654,000000	63,126709
2653,000000	63,136119
2652,000000	63,145792
2651,000000	63,146462
2650,000000	63,146633
2649,000000	63,155774
2648,000000	63,165089
2647,000000	63,164542
2646,000000	63,163030
2645,000000	63,171484
2644,000000	63,181989
2643,000000	63,183565
2642,000000	63,183427
2641,000000	63,191773
2640,000000	63,201320
2639,000000	63,202202
2638,000000	63,201692
2637,000000	63,209246
2636,000000	63,217267
2635,000000	63,216789
2634,000000	63,216521
2633,000000	63,226113
2632,000000	63,236259
2631,000000	63,235888
2630,000000	63,232993
2629,000000	63,238486
2628,000000	63,244830
2627,000000	63,241886
2626,000000	63,237760
2625,000000	63,243161
2624,000000	63,250733
2623,000000	63,250304
2622,000000	63,249378
2621,000000	63,257463
2620,000000	63,266169
2619,000000	63,265279
2618,000000	63,263078
2617,000000	63,270086
2616,000000	63,278361
2615,000000	63,277464
2614,000000	63,274988
2613,000000	63,280624
2612,000000	63,286179
2611,000000	63,282092
2610,000000	63,277632
2609,000000	63,283474
2608,000000	63,290622
2607,000000	63,287643
2606,000000	63,282414
2605,000000	63,285708
2604,000000	63,289408
2603,000000	63,283008
2602,000000	63,274826
2601,000000	63,275663
2600,000000	63,277219
2599,000000	63,268876
2598,000000	63,259195
2597,000000	63,259189
2596,000000	63,260463
2595,000000	63,252030
2594,000000	63,242574
2593,000000	63,243748
2592,000000	63,247816
2591,000000	63,243710
2590,000000	63,239385
2589,000000	63,245654
2588,000000	63,254310
2587,000000	63,254281
2586,000000	63,253626
2585,000000	63,262983
2584,000000	63,273776
2583,000000	63,275032
2582,000000	63,275531
2581,000000	63,286612
2580,000000	63,299280
2579,000000	63,301248
2578,000000	63,300421
2577,000000	63,308597
2576,000000	63,318007
2575,000000	63,317043
2574,000000	63,313494
2573,000000	63,318971
2572,000000	63,326197
2571,000000	63,324110
2570,000000	63,320232
2569,000000	63,324974
2568,000000	63,330156
2567,000000	63,325353
2566,000000	63,319878
2565,000000	63,325374
2564,000000	63,332968
2563,000000	63,330344
2562,000000	63,325230
2561,000000	63,329121
2560,000000	63,334011
2559,000000	63,328939
2558,000000	63,322598
2557,000000	63,326647
2556,000000	63,332301
2555,000000	63,327696
2554,000000	63,321563
2553,000000	63,326331
2552,000000	63,333536
2551,000000	63,330276
2550,000000	63,323967
2549,000000	63,326709
2548,000000	63,331194
2547,000000	63,325884
2546,000000	63,318761
2545,000000	63,321792
2544,000000	63,327533
2543,000000	63,324510
2542,000000	63,320269
2541,000000	63,325573
2540,000000	63,331768
2539,000000	63,327313
2538,000000	63,320869
2537,000000	63,324302
2536,000000	63,329551
2535,000000	63,325436
2534,000000	63,321037
2533,000000	63,327980
2532,000000	63,336351
2531,000000	63,332865
2530,000000	63,325858
2529,000000	63,328495
2528,000000	63,333248
2527,000000	63,328442
2526,000000	63,322866
2525,000000	63,328753
2524,000000	63,336731
2523,000000	63,333160
2522,000000	63,326124
2521,000000	63,328951
2520,000000	63,333958
2519,000000	63,328353
2518,000000	63,320142
2517,000000	63,322098
2516,000000	63,326242
2515,000000	63,319398
2514,000000	63,309254
2513,000000	63,308776
2512,000000	63,310539
2511,000000	63,302258
2510,000000	63,292242
2509,000000	63,293411
2508,000000	63,297512
2507,000000	63,291056
2506,000000	63,281389
2505,000000	63,281343
2504,000000	63,282982
2503,000000	63,273323
2502,000000	63,260728
2501,000000	63,259462
2500,000000	63,262603
2499,000000	63,256654
2498,000000	63,247952
2497,000000	63,248790
2496,000000	63,251920
2495,000000	63,244982
2494,000000	63,235760
2493,000000	63,236902
2492,000000	63,240332
2491,000000	63,232736
2490,000000	63,222065
2489,000000	63,222114
2488,000000	63,225795
2487,000000	63,219773
2486,000000	63,211064
2485,000000	63,212517
2484,000000	63,216615
2483,000000	63,210111
2482,000000	63,200330
2481,000000	63,200544
2480,000000	63,203427
2479,000000	63,195929
2478,000000	63,185813
2477,000000	63,186867
2476,000000	63,191386
2475,000000	63,184888
2474,000000	63,174061
2473,000000	63,173235
2472,000000	63,176388
2471,000000	63,169784
2470,000000	63,159246
2469,000000	63,157903
2468,000000	63,159963
2467,000000	63,153022
2466,000000	63,143608
2465,000000	63,143962
2464,000000	63,146790
2463,000000	63,139266
2462,000000	63,129062
2461,000000	63,129946
2460,000000	63,134927
2459,000000	63,130007
2458,000000	63,121242
2457,000000	63,121673
2456,000000	63,124755
2455,000000	63,117784
2454,000000	63,108260
2453,000000	63,109938
2452,000000	63,115403
2451,000000	63,109882
2450,000000	63,099459
2449,000000	63,098607
2448,000000	63,102155
2447,000000	63,097012
2446,000000	63,089328
2445,000000	63,092405
2444,000000	63,099461
2443,000000	63,095741
2442,000000	63,086503
2441,000000	63,085801
2440,000000	63,089135
2439,000000	63,083941
2438,000000	63,076034
2437,000000	63,078180
2436,000000	63,083816
2435,000000	63,078810
2434,000000	63,068670
2433,000000	63,067108
2432,000000	63,068863
2431,000000	63,060726
2430,000000	63,048487
2429,000000	63,045874
2428,000000	63,047402
2427,000000	63,039543
2426,000000	63,028235
2425,000000	63,027971
2424,000000	63,033382
2423,000000	63,029210
2422,000000	63,018930
2421,000000	63,016252
2420,000000	63,017398
2419,000000	63,009462
2418,000000	62,997376
2417,000000	62,995170
2416,000000	62,998752
2415,000000	62,994106
2414,000000	62,984605
2413,000000	62,983255
2412,000000	62,985806
2411,000000	62,978525
2410,000000	62,965592
2409,000000	62,961679
2408,000000	62,964254
2407,000000	62,959796
2406,000000	62,950841
2405,000000	62,950236
2404,000000	62,954592
2403,000000	62,950314
2402,000000	62,940577
2401,000000	62,939598
2400,000000	62,944701
2399,000000	62,941064
2398,000000	62,929940
2397,000000	62,925772
2396,000000	62,927904
2395,000000	62,921492
2394,000000	62,903951
2393,000000	62,883799
2392,000000	62,853833
2391,000000	62,787387
2390,000000	62,662752
2389,000000	62,461549
2388,000000	62,142772
2387,000000	61,645611
2386,000000	60,911791
2385,000000	59,899836
2384,000000	58,567553
2383,000000	56,879606
2382,000000	54,847265
2381,000000	52,526756
2380,000000	49,995227
2379,000000	47,328494
2378,000000	44,611888
2377,000000	41,938097
2376,000000	39,368725
2375,000000	36,923945
2374,000000	34,612409
2373,000000	32,458368
2372,000000	30,479411
2371,000000	28,669931
2370,000000	27,020537
2369,000000	25,542835
2368,000000	24,253301
2367,000000	23,138444
2366,000000	22,180980
2365,000000	21,395136
2364,000000	20,807213
2363,000000	20,407695
2362,000000	20,155424
2361,000000	20,052093
2360,000000	20,154145
2359,000000	20,500595
2358,000000	21,086733
2357,000000	21,917400
2356,000000	23,054941
2355,000000	24,573274
2354,000000	26,542271
2353,000000	29,084738
2352,000000	32,246863
2351,000000	35,610421
2350,000000	38,100318
2349,000000	38,566872
2348,000000	36,770422
2347,000000	33,711940
2346,000000	30,831229
2345,000000	28,928496
2344,000000	27,920886
2343,000000	27,403152
2342,000000	27,158708
2341,000000	27,128235
2340,000000	27,232208
2339,000000	27,384422
2338,000000	27,588680
2337,000000	27,867789
2336,000000	28,162648
2335,000000	28,371497
2334,000000	28,458715
2333,000000	28,482686
2332,000000	28,555472
2331,000000	28,808300
2330,000000	29,332205
2329,000000	30,091342
2328,000000	30,921995
2327,000000	31,654439
2326,000000	32,227361
2325,000000	32,695489
2324,000000	33,173213
2323,000000	33,791945
2322,000000	34,644989
2321,000000	35,736910
2320,000000	37,003665
2319,000000	38,373913
2318,000000	39,768823
2317,000000	41,060594
2316,000000	42,124990
2315,000000	42,968206
2314,000000	43,736195
2313,000000	44,571486
2312,000000	45,507647
2311,000000	46,516377
2310,000000	47,576490
2309,000000	48,662118
2308,000000	49,726572
2307,000000	50,746179
2306,000000	51,731955
2305,000000	52,668726
2304,000000	53,499331
2303,000000	54,202443
2302,000000	54,829120
2301,000000	55,429933
2300,000000	55,996548
2299,000000	56,511986
2298,000000	56,998300
2297,000000	57,474047
2296,000000	57,919030
2295,000000	58,320157
2294,000000	58,707130
2293,000000	59,101453
2292,000000	59,478556
2291,000000	59,818650
2290,000000	60,146671
2289,000000	60,484727
2288,000000	60,812251
2287,000000	61,108084
2286,000000	61,382837
2285,000000	61,628930
2284,000000	61,791550
2283,000000	61,836340
2282,000000	61,800615
2281,000000	61,740069
2280,000000	61,665976
2279,000000	61,576440
2278,000000	61,499063
2277,000000	61,455266
2276,000000	61,424029
2275,000000	61,383792
2274,000000	61,353542
2273,000000	61,351973
2272,000000	61,358159
2271,000000	61,351526
2270,000000	61,351095
2269,000000	61,374963
2268,000000	61,402648
2267,000000	61,416372
2266,000000	61,438502
2265,000000	61,488054
2264,000000	61,541954
2263,000000	61,578278
2262,000000	61,616909
2261,000000	61,677255
2260,000000	61,737945
2259,000000	61,778787
2258,000000	61,820588
2257,000000	61,883140
2256,000000	61,944454
2255,000000	61,983049
2254,000000	62,018902
2253,000000	62,072445
2252,000000	62,123571
2251,000000	62,152387
2250,000000	62,179313
2249,000000	62,223874
2248,000000	62,265006
2247,000000	62,282655
2246,000000	62,298159
2245,000000	62,331963
2244,000000	62,363217
2243,000000	62,371687
2242,000000	62,378842
2241,000000	62,405384
2240,000000	62,430373
2239,000000	62,433516
2238,000000	62,436585
2237,000000	62,460419
2236,000000	62,482887
2235,000000	62,482127
2234,000000	62,479678
2233,000000	62,498206
2232,000000	62,517505
2231,000000	62,516035
2230,000000	62,513952
2229,000000	62,532197
2228,000000	62,549635
2227,000000	62,545107
2226,000000	62,539862
2225,000000	62,555000
2224,000000	62,568024
2223,000000	62,556227
2222,000000	62,541652
2221,000000	62,547881
2220,000000	62,554677
2219,000000	62,539513
2218,000000	62,523366
2217,000000	62,528867
2216,000000	62,535352
2215,000000	62,520132
2214,000000	62,504067
2213,000000	62,510033
2212,000000	62,517540
2211,000000	62,504171
2210,000000	62,490861
2209,000000	62,499857
2208,000000	62,508746
2207,000000	62,493922
2206,000000	62,477322
2205,000000	62,484065
2204,000000	62,493739
2203,000000	62,481761
2202,000000	62,467601
2201,000000	62,474976
2200,000000	62,483846
2199,000000	62,470634
2198,000000	62,455468
2197,000000	62,461903
2196,000000	62,470080
2195,000000	62,456653
2194,000000	62,441705
2193,000000	62,448055
2192,000000	62,455353
2191,000000	62,441128
2190,000000	62,427299
2189,000000	62,437015
2188,000000	62,447751
2187,000000	62,434388
2186,000000	62,418409
2185,000000	62,425086
2184,000000	62,433642
2183,000000	62,419478
2182,000000	62,403416
2181,000000	62,410264
2180,000000	62,418640
2179,000000	62,403397
2178,000000	62,385330
2177,000000	62,389776
2176,000000	62,395957
2175,000000	62,378216
2174,000000	62,356293
2173,000000	62,354574
2172,000000	62,353107
2171,000000	62,329545
2170,000000	62,308006
2169,000000	62,314457
2168,000000	62,325541
2167,000000	62,312467
2166,000000	62,294623
2165,000000	62,297525
2164,000000	62,300670
2163,000000	62,279519
2162,000000	62,257568
2161,000000	62,262529
2160,000000	62,272245
2159,000000	62,257821
2158,000000	62,238955
2157,000000	62,242898
2156,000000	62,249160
2155,000000	62,230568
2154,000000	62,207639
2153,000000	62,208526
2152,000000	62,213838
2151,000000	62,196756
2150,000000	62,176771
2149,000000	62,180036
2148,000000	62,185736
2147,000000	62,167085
2146,000000	62,145343
2145,000000	62,148175
2144,000000	62,154561
2143,000000	62,135776
2142,000000	62,111811
2141,000000	62,110628
2140,000000	62,111867
2139,000000	62,086754
2138,000000	62,056285
2137,000000	62,053016
2136,000000	62,062496
2135,000000	62,056874
2134,000000	62,048824
2133,000000	62,058585
2132,000000	62,065373
2131,000000	62,045929
2130,000000	62,023183
2129,000000	62,024352
2128,000000	62,028834
2127,000000	62,010223
2126,000000	61,988989
2125,000000	61,991579
2124,000000	61,997134
2123,000000	61,979130
2122,000000	61,958282
2121,000000	61,961629
2120,000000	61,968586
2119,000000	61,950714
2118,000000	61,925044
2117,000000	61,916300
2116,000000	61,909125
2115,000000	61,887030
2114,000000	61,875844
2113,000000	61,895622
2112,000000	61,914770
2111,000000	61,903061
2110,000000	61,885436
2109,000000	61,891128
2108,000000	61,898069
2107,000000	61,880482
2106,000000	61,863064
2105,000000	61,872606
2104,000000	61,883454
2103,000000	61,867555
2102,000000	61,849497
2101,000000	61,857583
2100,000000	61,867614
2099,000000	61,852008
2098,000000	61,834575
2097,000000	61,842232
2096,000000	61,850793
2095,000000	61,833696
2094,000000	61,812405
2093,000000	61,805250
2092,000000	61,783299
2091,000000	61,733004
2090,000000	61,703784
2089,000000	61,731146
2088,000000	61,772311
2087,000000	61,777952
2086,000000	61,770452
2085,000000	61,785415
2084,000000	61,798512
2083,000000	61,778639
2082,000000	61,754958
2081,000000	61,759775
2080,000000	61,762446
2079,000000	61,731281
2078,000000	61,702485
2077,000000	61,715766
2076,000000	61,738533
2075,000000	61,728813
2074,000000	61,713482
2073,000000	61,730129
2072,000000	61,749929
2071,000000	61,736065
2070,000000	61,716028
2069,000000	61,715045
2068,000000	61,683074
2067,000000	61,580914
2066,000000	61,480795
2065,000000	61,479912
2064,000000	61,560676
2063,000000	61,630011
2062,000000	61,657393
2061,000000	61,677974
2060,000000	61,698901
2059,000000	61,698409
2058,000000	61,690608
2057,000000	61,704130
2056,000000	61,720080
2055,000000	61,707142
2054,000000	61,687446
2053,000000	61,696331
2052,000000	61,712665
2051,000000	61,701248
2050,000000	61,682780
2049,000000	61,690523
2048,000000	61,700347
2047,000000	61,678082
2046,000000	61,647429
2045,000000	61,636396
2044,000000	61,609322
2043,000000	61,536532
2042,000000	61,477993
2041,000000	61,505275
2040,000000	61,586155
2039,000000	61,636743
2038,000000	61,647233
2037,000000	61,662494
2036,000000	61,681645
2035,000000	61,672501
2034,000000	61,652279
2033,000000	61,659290
2032,000000	61,674191
2031,000000	61,655775
2030,000000	61,623617
2029,000000	61,621908
2028,000000	61,635092
2027,000000	61,623038
2026,000000	61,602406
2025,000000	61,610179
2024,000000	61,625386
2023,000000	61,610082
2022,000000	61,580250
2021,000000	61,549547
2020,000000	61,460665
2019,000000	61,281684
2018,000000	61,121706
2017,000000	61,127592
2016,000000	61,289913
2015,000000	61,463806
2014,000000	61,560986
2013,000000	61,605622
2012,000000	61,623941
2011,000000	61,602993
2010,000000	61,561556
2009,000000	61,550803
2008,000000	61,570877
2007,000000	61,576483
2006,000000	61,566530
2005,000000	61,579583
2004,000000	61,605635
2003,000000	61,595879
2002,000000	61,556277
2001,000000	61,538712
2000,000000	61,543792
1999,000000	61,530819
1998,000000	61,515055
1997,000000	61,536242
1996,000000	61,521392
1995,000000	61,318193
1994,000000	60,923504
1993,000000	60,570187
1992,000000	60,498638
1991,000000	60,702399
1990,000000	60,976347
1989,000000	61,162095
1988,000000	61,263458
1987,000000	61,348965
1986,000000	61,432514
1985,000000	61,480461
1984,000000	61,481992
1983,000000	61,466298
1982,000000	61,460194
1981,000000	61,459971
1980,000000	61,451576
1979,000000	61,437043
1978,000000	61,427932
1977,000000	61,424459
1976,000000	61,418059
1975,000000	61,408412
1974,000000	61,403371
1973,000000	61,404959
1972,000000	61,396046
1971,000000	61,330204
1970,000000	61,149849
1969,000000	60,864418
1968,000000	60,615481
1967,000000	60,587659
1966,000000	60,808754
1965,000000	61,095038
1964,000000	61,250213
1963,000000	61,260547
1962,000000	61,234082
1961,000000	61,224407
1960,000000	61,210255
1959,000000	61,190280
1958,000000	61,185166
1957,000000	61,176485
1956,000000	61,142323
1955,000000	61,124206
1954,000000	61,165521
1953,000000	61,223634
1952,000000	61,234279
1951,000000	61,212966
1950,000000	61,197682
1949,000000	61,156060
1948,000000	61,051537
1947,000000	60,910605
1946,000000	60,707059
1945,000000	60,315360
1944,000000	59,769800
1943,000000	59,438331
1942,000000	59,668852
1941,000000	60,315800
1940,000000	60,880086
1939,000000	61,097251
1938,000000	61,120784
1937,000000	61,142293
1936,000000	61,142907
1935,000000	61,079575
1934,000000	61,033733
1933,000000	61,058801
1932,000000	61,084853
1931,000000	61,066892
1930,000000	61,060122
1929,000000	61,088258
1928,000000	61,086314
1927,000000	60,992920
1926,000000	60,760472
1925,000000	60,346477
1924,000000	59,880535
1923,000000	59,696127
1922,000000	59,882299
1921,000000	59,949179
1920,000000	59,395989
1919,000000	58,556428
1918,000000	58,349162
1917,000000	59,095730
1916,000000	60,123668
1915,000000	60,694969
1914,000000	60,791283
1913,000000	60,731180
1912,000000	60,556191
1911,000000	60,216715
1910,000000	59,952758
1909,000000	60,023629
1908,000000	60,293338
1907,000000	60,469297
1906,000000	60,535277
1905,000000	60,628479
1904,000000	60,705280
1903,000000	60,663466
1902,000000	60,602967
1901,000000	60,655845
1900,000000	60,719181
1899,000000	60,623416
1898,000000	60,401902
1897,000000	60,180353
1896,000000	60,001591
1895,000000	59,932232
1894,000000	60,060028
1893,000000	60,179846
1892,000000	59,860627
1891,000000	59,112540
1890,000000	58,618476
1889,000000	58,911463
1888,000000	59,658637
1887,000000	60,165603
1886,000000	60,277636
1885,000000	60,320813
1884,000000	60,424664
1883,000000	60,450125
1882,000000	60,406107
1881,000000	60,439910
1880,000000	60,502860
1879,000000	60,452948
1878,000000	60,374181
1877,000000	60,424339
1876,000000	60,511485
1875,000000	60,473038
1874,000000	60,356968
1873,000000	60,115779
1872,000000	59,336237
1871,000000	57,835393
1870,000000	56,335221
1869,000000	55,889289
1868,000000	56,696989
1867,000000	58,000969
1866,000000	59,082935
1865,000000	59,800490
1864,000000	60,199176
1863,000000	60,256899
1862,000000	60,120048
1861,000000	60,076194
1860,000000	60,154356
1859,000000	60,153562
1858,000000	60,083054
1857,000000	60,149294
1856,000000	60,307737
1855,000000	60,305700
1854,000000	60,173997
1853,000000	60,178678
1852,000000	60,264637
1851,000000	60,099775
1850,000000	59,694786
1849,000000	59,358064
1848,000000	58,910785
1847,000000	57,668133
1846,000000	55,603710
1845,000000	53,949554
1844,000000	54,059223
1843,000000	55,908141
1842,000000	58,148469
1841,000000	59,514215
1840,000000	59,801881
1839,000000	59,596263
1838,000000	59,440657
1837,000000	59,451479
1836,000000	59,535126
1835,000000	59,630848
1834,000000	59,570072
1833,000000	58,924163
1832,000000	57,472396
1831,000000	55,883171
1830,000000	55,344971
1829,000000	56,162018
1828,000000	57,195780
1827,000000	57,275737
1826,000000	56,702378
1825,000000	56,696918
1824,000000	57,650009
1823,000000	58,762682
1822,000000	59,330107
1821,000000	59,471733
1820,000000	59,500648
1819,000000	59,386290
1818,000000	59,150928
1817,000000	59,105999
1816,000000	59,335928
1815,000000	59,434664
1814,000000	59,072188
1813,000000	58,441510
1812,000000	57,918703
1811,000000	57,673693
1810,000000	57,761149
1809,000000	58,186498
1808,000000	58,709949
1807,000000	58,965857
1806,000000	58,880161
1805,000000	58,612576
1804,000000	58,097954
1803,000000	57,174697
1802,000000	56,173493
1801,000000	55,771084
1800,000000	56,134234
1799,000000	56,770023
1798,000000	57,286249
1797,000000	57,590262
1796,000000	57,296242
1795,000000	55,830127
1794,000000	53,551532
1793,000000	51,953886
1792,000000	52,228836
1791,000000	54,063662
1790,000000	56,217175
1789,000000	57,716654
1788,000000	58,168070
1787,000000	57,642169
1786,000000	56,787054
1785,000000	56,472879
1784,000000	56,811445
1783,000000	57,027273
1782,000000	56,670015
1781,000000	56,322162
1780,000000	56,598065
1779,000000	57,165966
1778,000000	57,355006
1777,000000	57,011135
1776,000000	56,059521
1775,000000	54,052302
1774,000000	51,180727
1773,000000	49,056554
1772,000000	49,229870
1771,000000	51,153805
1770,000000	52,856682
1769,000000	53,495062
1768,000000	54,063906
1767,000000	55,431287
1766,000000	56,845815
1765,000000	56,961593
1764,000000	55,588363
1763,000000	53,906637
1762,000000	53,260077
1761,000000	53,976508
1760,000000	55,141221
1759,000000	55,486198
1758,000000	54,809733
1757,000000	54,302364
1756,000000	54,925602
1755,000000	55,837136
1754,000000	55,272993
1753,000000	52,940723
1752,000000	50,531088
1751,000000	49,633300
1750,000000	50,167087
1749,000000	51,193720
1748,000000	52,282727
1747,000000	53,370719
1746,000000	54,090456
1745,000000	54,143459
1744,000000	53,836499
1743,000000	53,479069
1742,000000	52,752282
1741,000000	51,567945
1740,000000	50,971642
1739,000000	51,894511
1738,000000	53,076659
1737,000000	51,881989
1736,000000	47,739421
1735,000000	43,601779
1734,000000	42,937584
1733,000000	45,940020
1732,000000	49,820564
1731,000000	52,275268
1730,000000	53,412616
1729,000000	54,344732
1728,000000	55,294553
1727,000000	55,758038
1726,000000	55,620644
1725,000000	55,302251
1724,000000	55,157246
1723,000000	55,139883
1722,000000	54,773764
1721,000000	53,179379
1720,000000	49,839866
1719,000000	45,787957
1718,000000	43,306655
1717,000000	43,744229
1716,000000	46,162602
1715,000000	48,761079
1714,000000	50,926258
1713,000000	52,926652
1712,000000	54,440044
1711,000000	54,789391
1710,000000	54,241620
1709,000000	53,582216
1708,000000	52,678933
1707,000000	51,067466
1706,000000	49,684072
1705,000000	49,881972
1704,000000	50,524617
1703,000000	48,562602
1702,000000	43,575309
1701,000000	39,484463
1700,000000	39,778528
1699,000000	42,847956
1698,000000	44,441803
1697,000000	43,560425
1696,000000	43,306111
1695,000000	46,050869
1694,000000	50,379769
1693,000000	53,385818
1692,000000	54,030776
1691,000000	53,412647
1690,000000	52,845729
1689,000000	52,559439
1688,000000	51,541653
1687,000000	48,485327
1686,000000	43,713976
1685,000000	40,023524
1684,000000	40,325846
1683,000000	44,331692
1682,000000	48,805020
1681,000000	51,375489
1680,000000	52,425148
1679,000000	52,857247
1678,000000	52,076796
1677,000000	49,605562
1676,000000	47,165764
1675,000000	47,042073
1674,000000	48,951011
1673,000000	50,252570
1672,000000	49,324200
1671,000000	47,297206
1670,000000	46,324962
1669,000000	47,339852
1668,000000	49,726726
1667,000000	52,135092
1666,000000	53,187818
1665,000000	52,283877
1664,000000	50,375296
1663,000000	49,377892
1662,000000	50,247153
1661,000000	52,057723
1660,000000	53,331571
1659,000000	53,655473
1658,000000	53,256689
1657,000000	51,432858
1656,000000	46,877501
1655,000000	40,092761
1654,000000	34,550498
1653,000000	34,089370
1652,000000	38,955124
1651,000000	45,209729
1650,000000	48,352106
1649,000000	47,272222
1648,000000	44,441987
1647,000000	42,991164
1646,000000	44,188660
1645,000000	47,233614
1644,000000	50,403449
1643,000000	52,334177
1642,000000	52,777553
1641,000000	52,439700
1640,000000	51,781972
1639,000000	50,181834
1638,000000	46,968445
1637,000000	43,179619
1636,000000	41,315338
1635,000000	42,875697
1634,000000	46,722397
1633,000000	50,339918
1632,000000	52,134274
1631,000000	52,150413
1630,000000	51,229559
1629,000000	50,236981
1628,000000	49,750441
1627,000000	49,701572
1626,000000	49,349371
1625,000000	48,224386
1624,000000	47,054359
1623,000000	47,151630
1622,000000	48,747771
1621,000000	50,350874
1620,000000	50,069043
1619,000000	47,498739
1618,000000	44,244857
1617,000000	42,667739
1616,000000	43,904451
1615,000000	46,926461
1614,000000	49,572055
1613,000000	50,540395
1612,000000	50,230272
1611,000000	49,723812
1610,000000	49,469367
1609,000000	49,309616
1608,000000	49,230602
1607,000000	49,418424
1606,000000	49,745354
1605,000000	49,841707
1604,000000	49,685235
1603,000000	49,633182
1602,000000	49,836140
1601,000000	50,058584
1600,000000	50,135888
1599,000000	50,175259
1598,000000	50,218801
1597,000000	50,115454
1596,000000	49,871270
1595,000000	49,761815
1594,000000	49,923628
1593,000000	50,134777
1592,000000	50,177274
1591,000000	50,148972
1590,000000	50,225286
1589,000000	50,351144
1588,000000	50,379891
1587,000000	50,342094
1586,000000	50,356558
1585,000000	50,390579
1584,000000	50,323043
1583,000000	50,197538
1582,000000	50,201824
1581,000000	50,246698
1580,000000	49,679283
1579,000000	47,699716
1578,000000	44,449521
1577,000000	41,597761
1576,000000	41,266218
1575,000000	43,886498
1574,000000	47,350226
1573,000000	48,839624
1572,000000	47,533132
1571,000000	45,164075
1570,000000	44,002732
1569,000000	44,758780
1568,000000	46,421951
1567,000000	47,643025
1566,000000	47,945065
1565,000000	47,790671
1564,000000	47,540167
1563,000000	46,362075
1562,000000	42,746426
1561,000000	36,748797
1560,000000	31,298505
1559,000000	29,992139
1558,000000	33,301449
1557,000000	38,062472
1556,000000	41,152048
1555,000000	42,526780
1554,000000	43,883570
1553,000000	45,623084
1552,000000	46,671856
1551,000000	46,729829
1550,000000	46,823941
1549,000000	47,490780
1548,000000	47,813728
1547,000000	46,851241
1546,000000	44,957364
1545,000000	43,033932
1544,000000	41,197560
1543,000000	38,899869
1542,000000	36,086122
1541,000000	33,787742
1540,000000	33,620802
1539,000000	36,525435
1538,000000	41,481550
1537,000000	45,625406
1536,000000	46,560711
1535,000000	44,837160
1534,000000	43,339088
1533,000000	44,040294
1532,000000	46,146849
1531,000000	47,715493
1530,000000	47,912878
1529,000000	47,103846
1528,000000	45,781827
1527,000000	44,454021
1526,000000	43,735689
1525,000000	43,462409
1524,000000	42,403384
1523,000000	40,023730
1522,000000	37,952728
1521,000000	38,240674
1520,000000	40,511857
1519,000000	42,369096
1518,000000	42,659905
1517,000000	42,698728
1516,000000	43,851038
1515,000000	45,476492
1514,000000	46,157831
1513,000000	45,827967
1512,000000	45,373813
1511,000000	44,768098
1510,000000	42,861280
1509,000000	39,177435
1508,000000	35,154101
1507,000000	33,257061
1506,000000	34,955108
1505,000000	39,445480
1504,000000	44,196283
1503,000000	46,895411
1502,000000	47,056645
1501,000000	45,730516
1500,000000	43,940479
1499,000000	41,937303
1498,000000	39,979594
1497,000000	38,952993
1496,000000	39,620231
1495,000000	41,509210
1494,000000	43,117048
1493,000000	43,242951
1492,000000	41,987009
1491,000000	40,526269
1490,000000	40,058502
1489,000000	40,871105
1488,000000	42,373817
1487,000000	43,935904
1486,000000	45,425925
1485,000000	46,777198
1484,000000	47,545516
1483,000000	47,473941
1482,000000	47,137892
1481,000000	47,269911
1480,000000	47,595658
1479,000000	47,200820
1478,000000	45,953156
1477,000000	44,593867
1476,000000	43,374835
1475,000000	41,747489
1474,000000	39,818805
1473,000000	38,964834
1472,000000	40,282917
1471,000000	43,114063
1470,000000	45,778297
1469,000000	47,136187
1468,000000	46,945213
1467,000000	45,512738
1466,000000	43,772022
1465,000000	43,079913
1464,000000	44,003761
1463,000000	45,583634
1462,000000	46,265495
1461,000000	45,223275
1460,000000	42,448739
1459,000000	38,537094
1458,000000	35,049704
1457,000000	34,144257
1456,000000	36,564721
1455,000000	40,482099
1454,000000	43,318866
1453,000000	44,344245
1452,000000	44,550163
1451,000000	44,564035
1450,000000	44,133922
1449,000000	43,406997
1448,000000	43,276295
1447,000000	44,120238
1446,000000	45,255412
1445,000000	45,945911
1444,000000	46,188684
1443,000000	46,304956
1442,000000	46,386121
1441,000000	46,254041
1440,000000	45,450756
1439,000000	43,489759
1438,000000	40,826382
1437,000000	39,237421
1436,000000	40,173007
1435,000000	42,856940
1434,000000	44,997953
1433,000000	45,413891
1432,000000	44,872509
1431,000000	44,459213
1430,000000	44,397515
1429,000000	44,623497
1428,000000	45,205276
1427,000000	45,736790
1426,000000	45,504135
1425,000000	44,699931
1424,000000	44,356277
1423,000000	44,517990
1422,000000	43,794622
1421,000000	41,520849
1420,000000	39,238114
1419,000000	38,951256
1418,000000	40,675995
1417,000000	42,827005
1416,000000	44,291925
1415,000000	45,089565
1414,000000	45,426897
1413,000000	45,315892
1412,000000	45,015193
1411,000000	44,925242
1410,000000	45,005300
1409,000000	44,872405
1408,000000	44,397694
1407,000000	43,742737
1406,000000	43,073838
1405,000000	42,654413
1404,000000	42,838055
1403,000000	43,435728
1402,000000	43,552163
1401,000000	42,687806
1400,000000	41,605956
1399,000000	41,320557
1398,000000	41,643758
1397,000000	41,597033
1396,000000	41,021864
1395,000000	40,835876
1394,000000	41,650293
1393,000000	43,010736
1392,000000	44,075142
1391,000000	44,373837
1390,000000	43,819658
1389,000000	42,680624
1388,000000	41,719564
1387,000000	41,719861
1386,000000	42,612900
1385,000000	43,549331
1384,000000	43,958552
1383,000000	44,034070
1382,000000	44,106971
1381,000000	44,121089
1380,000000	43,979321
1379,000000	43,844850
1378,000000	43,770065
1377,000000	43,454600
1376,000000	42,751930
1375,000000	42,098001
1374,000000	42,060773
1373,000000	42,648499
1372,000000	43,335100
1371,000000	43,670359
1370,000000	43,638511
1369,000000	43,519635
1368,000000	43,556172
1367,000000	43,684763
1366,000000	43,550924
1365,000000	42,905588
1364,000000	42,007489
1363,000000	41,469323
1362,000000	41,633230
1361,000000	42,272065
1360,000000	42,935527
1359,000000	43,373196
1358,000000	43,562698
1357,000000	43,551041
1356,000000	43,436001
1355,000000	43,364111
1354,000000	43,400092
1353,000000	43,458542
1352,000000	43,441893
1351,000000	43,365894
1350,000000	43,300381
1349,000000	43,269291
1348,000000	43,259011
1347,000000	43,259126
1346,000000	43,255720
1345,000000	43,224012
1344,000000	43,122788
1343,000000	42,867625
1342,000000	42,383951
1341,000000	41,771330
1340,000000	41,336826
1339,000000	41,329619
1338,000000	41,676176
1337,000000	42,102653
1336,000000	42,444406
1335,000000	42,702088
1334,000000	42,868646
1333,000000	42,897495
1332,000000	42,831311
1331,000000	42,783341
1330,000000	42,778490
1329,000000	42,748344
1328,000000	42,683216
1327,000000	42,643218
1326,000000	42,628329
1325,000000	42,575714
1324,000000	42,483078
1323,000000	42,395630
1322,000000	42,283123
1321,000000	42,075925
1320,000000	41,826708
1319,000000	41,687591
1318,000000	41,704358
1317,000000	41,763888
1316,000000	41,759597
1315,000000	41,699730
1314,000000	41,635390
1313,000000	41,594336
1312,000000	41,597903
1311,000000	41,644309
1310,000000	41,668699
1309,000000	41,610887
1308,000000	41,511984
1307,000000	41,456130
1306,000000	41,438019
1305,000000	41,388786
1304,000000	41,307453
1303,000000	41,251700
1302,000000	41,220879
1301,000000	41,159544
1300,000000	41,067930
1299,000000	40,996333
1298,000000	40,944631
1297,000000	40,871226
1296,000000	40,788582
1295,000000	40,742978
1294,000000	40,714911
1293,000000	40,643746
1292,000000	40,534943
1291,000000	40,441899
1290,000000	40,361158
1289,000000	40,254097
1288,000000	40,147799
1287,000000	40,104179
1286,000000	40,101938
1285,000000	40,062040
1284,000000	39,974473
1283,000000	39,895200
1282,000000	39,831635
1281,000000	39,740788
1280,000000	39,629477
1279,000000	39,546712
1278,000000	39,485164
1277,000000	39,390888
1276,000000	39,262427
1275,000000	39,139370
1274,000000	39,010107
1273,000000	38,831649
1272,000000	38,629957
1271,000000	38,473173
1270,000000	38,355527
1269,000000	38,208289
1268,000000	38,016930
1267,000000	37,829340
1266,000000	37,655543
1265,000000	37,460949
1264,000000	37,251778
1263,000000	37,075342
1262,000000	36,940490
1261,000000	36,828601
1260,000000	36,767002
1259,000000	36,796056
1258,000000	36,876566
1257,000000	36,925466
1256,000000	36,931073
1255,000000	36,941688
1254,000000	36,956514
1253,000000	36,927188
1252,000000	36,857104
1251,000000	36,797515
1250,000000	36,751756
1249,000000	36,676842
1248,000000	36,574502
1247,000000	36,487378
1246,000000	36,413379
1245,000000	36,313788
1244,000000	36,199592
1243,000000	36,117525
1242,000000	36,058353
1241,000000	35,969998
1240,000000	35,853719
1239,000000	35,758241
1238,000000	35,684483
1237,000000	35,588182
1236,000000	35,469719
1235,000000	35,372451
1234,000000	35,294875
1233,000000	35,193650
1232,000000	35,069899
1231,000000	34,966720
1230,000000	34,883437
1229,000000	34,776938
1228,000000	34,645647
1227,000000	34,529471
1226,000000	34,430815
1225,000000	34,315388
1224,000000	34,187191
1223,000000	34,081352
1222,000000	33,988489
1221,000000	33,865799
1220,000000	33,718463
1219,000000	33,590602
1218,000000	33,482296
1217,000000	33,353773
1216,000000	33,205103
1215,000000	33,073215
1214,000000	32,956889
1213,000000	32,823972
1212,000000	32,685191
1211,000000	32,581626
1210,000000	32,505219
1209,000000	32,410603
1208,000000	32,298200
1207,000000	32,208063
1206,000000	32,137642
1205,000000	32,046221
1204,000000	31,935072
1203,000000	31,843852
1202,000000	31,771651
1201,000000	31,679504
1200,000000	31,568267
1199,000000	31,476534
1198,000000	31,404254
1197,000000	31,313538
1196,000000	31,203196
1195,000000	31,107857
1194,000000	31,026222
1193,000000	30,923802
1192,000000	30,803514
1191,000000	30,700643
1190,000000	30,611070
1189,000000	30,497497
1188,000000	30,363878
1187,000000	30,250440
1186,000000	30,156564
1185,000000	30,039643
1184,000000	29,889001
1183,000000	29,733664
1182,000000	29,581693
1181,000000	29,421505
1180,000000	29,277079
1179,000000	29,188505
1178,000000	29,138684
1177,000000	29,069753
1176,000000	28,970087
1175,000000	28,877051
1174,000000	28,798797
1173,000000	28,704516
1172,000000	28,591184
1171,000000	28,488841
1170,000000	28,397818
1169,000000	28,287942
1168,000000	28,161369
1167,000000	28,051014
1166,000000	27,956644
1165,000000	27,846666
1164,000000	27,722137
1163,000000	27,615014
1162,000000	27,524605
1161,000000	27,419515
1160,000000	27,301290
1159,000000	27,202410
1158,000000	27,122617
1157,000000	27,029815
1156,000000	26,923175
1155,000000	26,832500
1154,000000	26,757012
1153,000000	26,666599
1152,000000	26,562511
1151,000000	26,475242
1150,000000	26,403227
1149,000000	26,314963
1148,000000	26,210362
1147,000000	26,120243
1146,000000	26,045919
1145,000000	25,959532
1144,000000	25,862376
1143,000000	25,783879
1142,000000	25,723344
1141,000000	25,651298
1140,000000	25,566377
1139,000000	25,493554
1138,000000	25,428870
1137,000000	25,343854
1136,000000	25,242444
1135,000000	25,155242
1134,000000	25,080540
1133,000000	24,987958
1132,000000	24,878372
1131,000000	24,781525
1130,000000	24,697640
1129,000000	24,598550
1128,000000	24,485100
1127,000000	24,385802
1126,000000	24,300132
1125,000000	24,199916
1124,000000	24,085053
1123,000000	23,982534
1122,000000	23,891571
1121,000000	23,785822
1120,000000	23,667171
1119,000000	23,562978
1118,000000	23,471288
1117,000000	23,364570
1116,000000	23,244754
1115,000000	23,140305
1114,000000	23,050619
1113,000000	22,948236
1112,000000	22,834017
1111,000000	22,735272
1110,000000	22,651570
1109,000000	22,556228
1108,000000	22,451018
1107,000000	22,363972
1106,000000	22,295256
1105,000000	22,217525
1104,000000	22,129661
1103,000000	22,056401
1102,000000	21,996062
1101,000000	21,921444
1100,000000	21,832246
1099,000000	21,754751
1098,000000	21,689762
1097,000000	21,612788
1096,000000	21,524299
1095,000000	21,449595
1094,000000	21,388400
1093,000000	21,316175
1092,000000	21,233457
1091,000000	21,164796
1090,000000	21,109081
1089,000000	21,041343
1088,000000	20,962519
1087,000000	20,897670
1086,000000	20,846006
1085,000000	20,781610
1084,000000	20,703606
1083,000000	20,636333
1082,000000	20,581940
1081,000000	20,520039
1080,000000	20,454100
1079,000000	20,408168
1078,000000	20,379985
1077,000000	20,344280
1076,000000	20,301874
1075,000000	20,277680
1074,000000	20,270923
1073,000000	20,255971
1072,000000	20,230800
1071,000000	20,217941
1070,000000	20,217488
1069,000000	20,207126
1068,000000	20,187393
1067,000000	20,181393
1066,000000	20,188760
1065,000000	20,186866
1064,000000	20,175829
1063,000000	20,177772
1062,000000	20,191745
1061,000000	20,194573
1060,000000	20,185132
1059,000000	20,182170
1058,000000	20,179097
1057,000000	20,144084
1056,000000	20,067428
1055,000000	19,965342
1054,000000	19,844006
1053,000000	19,703739
1052,000000	19,578303
1051,000000	19,520730
1050,000000	19,549542
1049,000000	19,644573
1048,000000	19,790081
1047,000000	19,978747
1046,000000	20,176552
1045,000000	20,337180
1044,000000	20,452402
1043,000000	20,548710
1042,000000	20,634651
1041,000000	20,696186
1040,000000	20,738735
1039,000000	20,787794
1038,000000	20,845686
1037,000000	20,891185
1036,000000	20,923764
1035,000000	20,964762
1034,000000	21,015217
1033,000000	21,054522
1032,000000	21,082335
1031,000000	21,119028
1030,000000	21,165201
1029,000000	21,200859
1028,000000	21,226480
1027,000000	21,262546
1026,000000	21,309172
1025,000000	21,345811
1024,000000	21,372162
1023,000000	21,408817
1022,000000	21,457289
1021,000000	21,499288
1020,000000	21,535114
1019,000000	21,584017
1018,000000	21,645225
1017,000000	21,699460
1016,000000	21,747380
1015,000000	21,808863
1014,000000	21,883139
1013,000000	21,949519
1012,000000	22,006789
1011,000000	22,073617
1010,000000	22,149728
1009,000000	22,215181
1008,000000	22,268477
1007,000000	22,326667
1006,000000	22,388715
1005,000000	22,435788
1004,000000	22,468582
1003,000000	22,505900
1002,000000	22,547350
1001,000000	22,573769
1000,000000	22,585431
999,000000	22,601178
998,000000	22,621364
997,000000	22,627954
996,000000	22,621078
995,000000	22,618972
994,000000	22,621075
993,000000	22,609483
992,000000	22,585122
991,000000	22,566991
990,000000	22,554875
989,000000	22,530435
988,000000	22,493896
987,000000	22,463907
986,000000	22,440358
985,000000	22,404859
984,000000	22,357525
983,000000	22,317187
982,000000	22,285013
981,000000	22,243393
980,000000	22,192187
979,000000	22,148778
978,000000	22,112993
977,000000	22,066349
976,000000	22,008242
975,000000	21,956707
974,000000	21,913384
973,000000	21,861725
972,000000	21,801107
971,000000	21,747751
970,000000	21,701208
969,000000	21,644507
968,000000	21,577808
967,000000	21,518661
966,000000	21,467238
965,000000	21,406578
964,000000	21,336486
963,000000	21,274353
962,000000	21,220529
961,000000	21,157883
960,000000	21,085959
959,000000	21,022195
958,000000	20,967688
957,000000	20,905252
956,000000	20,833395
955,000000	20,768546
954,000000	20,712734
953,000000	20,650615
952,000000	20,581306
951,000000	20,519942
950,000000	20,467162
949,000000	20,407767
948,000000	20,341905
947,000000	20,285300
946,000000	20,237825
945,000000	20,182867
944,000000	20,119034
943,000000	20,061754
942,000000	20,011845
941,000000	19,954391
940,000000	19,888886
939,000000	19,830660
938,000000	19,780098
937,000000	19,722041
936,000000	19,655857
935,000000	19,596688
934,000000	19,545274
933,000000	19,487003
932,000000	19,421589
931,000000	19,363627
930,000000	19,313178
929,000000	19,255105
928,000000	19,189192
927,000000	19,130426
926,000000	19,079493
925,000000	19,021465
924,000000	18,955654
923,000000	18,896466
922,000000	18,844367
921,000000	18,784492
920,000000	18,715549
919,000000	18,651373
918,000000	18,592459
917,000000	18,524802
916,000000	18,447441
915,000000	18,373733
914,000000	18,303833
913,000000	18,224673
912,000000	18,137573
911,000000	18,058929
910,000000	17,991512
909,000000	17,922676
908,000000	17,851083
907,000000	17,788322
906,000000	17,733374
905,000000	17,672730
904,000000	17,606703
903,000000	17,548752
902,000000	17,498621
901,000000	17,441979
900,000000	17,378157
899,000000	17,320892
898,000000	17,271873
897,000000	17,218851
896,000000	17,161006
895,000000	17,109773
894,000000	17,064100
893,000000	17,010424
892,000000	16,947724
891,000000	16,887884
890,000000	16,830460
889,000000	16,762808
888,000000	16,684526
887,000000	16,607532
886,000000	16,531470
885,000000	16,444207
884,000000	16,346542
883,000000	16,252099
882,000000	16,162651
881,000000	16,068416
880,000000	15,972859
879,000000	15,892534
878,000000	15,831976
877,000000	15,782144
876,000000	15,743149
875,000000	15,724691
874,000000	15,723776
873,000000	15,725566
872,000000	15,727746
871,000000	15,739863
870,000000	15,759870
869,000000	15,773620
868,000000	15,778197
867,000000	15,782937
866,000000	15,787347
865,000000	15,780815
864,000000	15,763906
863,000000	15,748121
862,000000	15,733717
861,000000	15,710387
860,000000	15,678858
859,000000	15,650559
858,000000	15,625589
857,000000	15,592925
856,000000	15,552510
855,000000	15,515782
854,000000	15,484293
853,000000	15,448643
852,000000	15,408958
851,000000	15,375655
850,000000	15,349949
849,000000	15,323006
848,000000	15,294512
847,000000	15,272180
846,000000	15,253632
845,000000	15,228095
844,000000	15,195900
843,000000	15,167086
842,000000	15,141592
841,000000	15,109707
840,000000	15,070975
839,000000	15,033563
838,000000	14,995841
837,000000	14,947137
836,000000	14,885815
835,000000	14,818610
834,000000	14,742570
833,000000	14,647110
832,000000	14,532396
831,000000	14,408815
830,000000	14,279234
829,000000	14,139899
828,000000	13,998462
827,000000	13,873443
826,000000	13,776791
825,000000	13,711982
824,000000	13,687785
823,000000	13,713318
822,000000	13,780062
821,000000	13,864370
820,000000	13,948472
819,000000	14,025845
818,000000	14,088445
817,000000	14,127139
816,000000	14,144327
815,000000	14,151047
814,000000	14,150907
813,000000	14,140333
812,000000	14,121893
811,000000	14,102826
810,000000	14,082330
809,000000	14,054085
808,000000	14,020058
807,000000	13,987949
806,000000	13,957305
805,000000	13,922161
804,000000	13,885161
803,000000	13,855252
802,000000	13,832944
801,000000	13,811342
800,000000	13,790145
799,000000	13,775841
798,000000	13,769346
797,000000	13,765642
796,000000	13,764708
795,000000	13,771092
794,000000	13,784169
793,000000	13,799166
792,000000	13,816102
791,000000	13,837836
790,000000	13,861406
789,000000	13,881177
788,000000	13,898035
787,000000	13,916381
786,000000	13,934769
785,000000	13,948394
784,000000	13,957825
783,000000	13,966708
782,000000	13,973935
781,000000	13,976035
780,000000	13,974400
779,000000	13,972657
778,000000	13,970163
777,000000	13,964792
776,000000	13,958393
775,000000	13,953210
774,000000	13,946677
773,000000	13,935644
772,000000	13,921933
771,000000	13,908587
770,000000	13,894818
769,000000	13,879145
768,000000	13,862970
767,000000	13,847089
766,000000	13,829218
765,000000	13,808457
764,000000	13,787457
763,000000	13,767617
762,000000	13,747063
761,000000	13,725080
760,000000	13,703272
759,000000	13,681368
758,000000	13,657469
757,000000	13,632663
756,000000	13,609581
755,000000	13,587092
754,000000	13,562497
753,000000	13,537028
752,000000	13,512846
751,000000	13,487554
750,000000	13,458743
749,000000	13,429753
748,000000	13,403537
747,000000	13,376099
746,000000	13,343952
745,000000	13,311164
744,000000	13,280633
743,000000	13,247171
742,000000	13,209054
741,000000	13,175838
740,000000	13,153043
739,000000	13,130570
738,000000	13,099007
737,000000	13,065134
736,000000	13,037001
735,000000	13,008105
734,000000	12,971665
733,000000	12,935655
732,000000	12,906544
731,000000	12,874985
730,000000	12,835193
729,000000	12,799507
728,000000	12,774742
727,000000	12,746754
726,000000	12,709324
725,000000	12,677563
724,000000	12,644838
723,000000	12,562660
722,000000	12,411797
721,000000	12,264203
720,000000	12,218012
719,000000	12,280122
718,000000	12,364773
717,000000	12,401161
716,000000	12,389915
715,000000	12,359272
714,000000	12,320284
713,000000	12,277446
712,000000	12,238937
711,000000	12,202202
710,000000	12,156700
709,000000	12,105373
708,000000	12,058131
707,000000	12,009575
706,000000	11,949744
705,000000	11,887615
704,000000	11,835128
703,000000	11,781009
702,000000	11,710420
701,000000	11,633346
700,000000	11,562777
699,000000	11,485585
698,000000	11,389512
697,000000	11,292439
696,000000	11,209084
695,000000	11,117640
694,000000	10,999549
693,000000	10,875706
692,000000	10,761298
691,000000	10,627425
690,000000	10,460004
689,000000	10,309539
688,000000	10,221952
687,000000	10,169029
686,000000	10,109461
685,000000	10,064064
684,000000	10,055438
683,000000	10,039057
682,000000	9,977931
681,000000	9,922542
680,000000	9,920028
679,000000	9,920428
678,000000	9,876201
677,000000	9,847739
676,000000	9,888200
675,000000	9,929791
674,000000	9,921755
673,000000	9,913823
672,000000	9,784989
671,000000	9,097680
670,000000	7,663428
669,000000	6,185146
668,000000	5,831507
667,000000	6,961667
666,000000	8,650669
665,000000	9,731481
664,000000	9,939159
663,000000	9,795402
662,000000	9,703914
661,000000	9,625277
660,000000	9,480343
659,000000	9,368317
658,000000	9,342432
657,000000	9,301641
656,000000	9,201101
655,000000	9,131758
654,000000	9,134035
653,000000	9,121253
652,000000	9,046892
651,000000	8,977108
650,000000	8,953551
649,000000	8,934554
648,000000	8,910583
647,000000	8,935816
646,000000	9,005943
645,000000	9,039092
644,000000	9,011347
643,000000	8,992139
642,000000	9,010439
641,000000	9,011095
640,000000	8,971058
639,000000	8,943418
638,000000	8,947699
637,000000	8,930760
636,000000	8,874120
635,000000	8,833903
634,000000	8,835501
633,000000	8,826858
632,000000	8,779127
631,000000	8,735167
630,000000	8,720196
629,000000	8,691843
628,000000	8,625323
627,000000	8,561647
626,000000	8,529791
625,000000	8,497311
624,000000	8,441333
623,000000	8,393137
622,000000	8,366854
621,000000	8,314524
620,000000	8,199638
619,000000	8,062393
618,000000	7,965904
617,000000	7,925778
616,000000	7,921518
615,000000	7,931787
614,000000	7,929958
613,000000	7,889868
612,000000	7,820595
611,000000	7,757984
610,000000	7,707858
609,000000	7,641646
608,000000	7,555224
607,000000	7,480347
606,000000	7,429547
605,000000	7,380725
604,000000	7,327349
603,000000	7,288799
602,000000	7,263344
601,000000	7,223434
600,000000	7,169150
599,000000	7,130731
598,000000	7,110557
597,000000	7,075973
596,000000	7,018251
595,000000	6,963023
594,000000	6,914707
593,000000	6,850273
592,000000	6,775760
591,000000	6,729620
590,000000	6,714554
589,000000	6,686995
588,000000	6,626773
587,000000	6,563089
586,000000	6,515049
585,000000	6,463339
584,000000	6,396994
583,000000	6,334947
582,000000	6,284963
581,000000	6,229627
580,000000	6,166527
579,000000	6,113057
578,000000	6,064502
577,000000	5,997746
576,000000	5,924162
575,000000	5,881213
574,000000	5,865648
573,000000	5,831003
572,000000	5,762961
571,000000	5,696852
570,000000	5,649947
569,000000	5,598421
568,000000	5,534968
567,000000	5,488291
566,000000	5,464352
565,000000	5,429408
564,000000	5,370393
563,000000	5,317715
562,000000	5,285361
561,000000	5,246333
560,000000	5,187942
559,000000	5,136983
558,000000	5,106060
557,000000	5,068712
556,000000	5,012617
555,000000	4,964183
554,000000	4,936722
553,000000	4,903429
552,000000	4,849342
551,000000	4,798892
550,000000	4,767799
549,000000	4,733843
548,000000	4,683196
547,000000	4,638736
546,000000	4,616160
545,000000	4,595388
544,000000	4,560896
543,000000	4,528847
542,000000	4,508970
541,000000	4,482438
540,000000	4,439953
539,000000	4,402304
538,000000	4,379171
537,000000	4,350178
536,000000	4,306719
535,000000	4,271478
534,000000	4,253432
533,000000	4,227606
532,000000	4,182083
531,000000	4,140751
530,000000	4,114498
529,000000	4,072834
528,000000	3,995973
527,000000	3,914302
526,000000	3,866681
525,000000	3,850017
524,000000	3,838666
523,000000	3,821145
522,000000	3,792504
521,000000	3,742103
520,000000	3,674825
519,000000	3,618376
518,000000	3,588846
517,000000	3,574168
516,000000	3,563535
515,000000	3,562438
514,000000	3,565354
513,000000	3,550738
512,000000	3,517079
511,000000	3,488978
510,000000	3,471937
509,000000	3,442212
508,000000	3,395588
507,000000	3,363212
506,000000	3,356415
505,000000	3,339795
504,000000	3,287795
503,000000	3,228569
502,000000	3,202096
501,000000	3,204787
500,000000	3,207275
499,000000	3,197800
498,000000	3,180044
497,000000	3,152137
496,000000	3,113717
495,000000	3,074692
494,000000	3,038275
493,000000	2,995183
492,000000	2,947773
491,000000	2,914338
490,000000	2,896484
489,000000	2,870344
488,000000	2,822950
487,000000	2,770398
486,000000	2,725830
485,000000	2,680954
484,000000	2,632659
483,000000	2,596643
482,000000	2,577109
481,000000	2,553103
480,000000	2,511933
479,000000	2,468575
478,000000	2,436204
477,000000	2,403419
476,000000	2,356657
475,000000	2,299783
474,000000	2,240770
473,000000	2,184437
472,000000	2,145734
471,000000	2,139497
470,000000	2,149457
469,000000	2,139801
468,000000	2,107321
467,000000	2,084622
466,000000	2,083185
465,000000	2,074697
464,000000	2,043219
463,000000	2,013470
462,000000	2,002648
461,000000	1,984894
460,000000	1,933279
459,000000	1,868534
458,000000	1,834776
457,000000	1,846365
456,000000	1,881867
455,000000	1,912598
454,000000	1,920677
453,000000	1,905433
452,000000	1,885433
451,000000	1,879278
450,000000	1,879104
449,000000	1,862918
448,000000	1,832724
447,000000	1,811471
446,000000	1,801772
445,000000	1,781285
444,000000	1,745651
443,000000	1,719544
442,000000	1,715573
441,000000	1,715744
440,000000	1,703540
439,000000	1,682918
438,000000	1,656634
437,000000	1,619847
436,000000	1,583115
435,000000	1,567159
434,000000	1,565965
433,000000	1,550502
432,000000	1,515604
431,000000	1,486616
430,000000	1,472080
429,000000	1,450620
428,000000	1,413336
427,000000	1,377302
426,000000	1,347479
425,000000	1,307633
424,000000	1,259048
423,000000	1,221290
422,000000	1,184186
421,000000	1,111687
420,000000	1,013247
419,000000	0,955808
418,000000	0,976646
417,000000	1,031245
416,000000	1,058071
415,000000	1,050982
414,000000	1,034602
413,000000	1,012113
412,000000	0,976943
411,000000	0,942277
410,000000	0,920376
409,000000	0,897974
408,000000	0,862690
407,000000	0,828302
406,000000	0,807494
405,000000	0,786738
404,000000	0,753247
403,000000	0,718223
402,000000	0,688590
401,000000	0,646112
400,000000	0,581742
399,000000	0,522216
398,000000	0,494062
397,000000	0,487192
396,000000	0,479813
395,000000	0,472954
394,000000	0,474300
393,000000	0,473399
392,000000	0,459926
391,000000	0,443878
390,000000	0,434268
389,000000	0,419701
388,000000	0,391151
387,000000	0,361161
386,000000	0,341225
385,000000	0,323666
384,000000	0,303482
383,000000	0,292082
382,000000	0,291837
381,000000	0,284628
380,000000	0,262343
379,000000	0,240410
378,000000	0,225874
377,000000	0,203701
376,000000	0,171213
375,000000	0,152704
374,000000	0,159317
373,000000	0,167070
372,000000	0,156725
371,000000	0,142571
370,000000	0,139286
369,000000	0,135174
368,000000	0,120005
367,000000	0,107832
366,000000	0,108037
365,000000	0,104732
364,000000	0,088232
363,000000	0,075518
362,000000	0,077142
361,000000	0,075596
360,000000	0,059305
359,000000	0,046012
358,000000	0,048376
357,000000	0,050244
356,000000	0,038506
355,000000	0,027988
354,000000	0,030920
353,000000	0,032694
352,000000	0,021701
351,000000	0,013910
350,000000	0,020237
349,000000	0,025021
348,000000	0,016234
347,000000	0,009983
346,000000	0,016024
345,000000	0,019415
344,000000	0,010444
343,000000	0,004893
342,000000	0,011706
341,000000	0,016383
340,000000	0,007052
339,000000	0,002587
338,000000	0,005893
337,000000	0,009440
336,000000	0,002984
335,000000	0,007099
334,000000	0,002375
333,000000	0,008206
332,000000	0,001971
331,000000	0,004340
330,000000	0,005449
329,000000	0,011307
328,000000	0,001308
327,000000	0,006111
326,000000	0,002771
325,000000	0,007382
324,000000	0,005412
323,000000	0,008169
322,000000	0,001830
321,000000	0,008841
320,000000	0,002304
319,000000	0,006872
318,000000	0,002696
317,000000	0,006759
316,000000	0,003886
315,000000	0,007737
314,000000	0,001689
313,000000	0,008277
312,000000	0,001595
311,000000	0,007152
310,000000	0,002860
309,000000	0,008363
308,000000	0,002946
307,000000	0,005905
306,000000	0,004194
305,000000	0,011099
304,000000	0,004413
303,000000	0,000502
302,000000	0,006731
301,000000	0,011500
300,000000	0,001625
299,000000	0,005323
298,000000	0,003154
297,000000	0,008770
296,000000	0,004650
295,000000	0,005686
294,000000	0,004806
293,000000	0,011891
292,000000	0,005557
291,000000	0,005862
290,000000	0,004315
289,000000	0,010921
288,000000	0,002910
287,000000	0,003064
286,000000	0,003667
285,000000	0,008145
284,000000	0,002587
283,000000	0,008795
282,000000	0,002325
281,000000	0,008097
280,000000	0,003266
279,000000	0,006074
278,000000	0,002945
277,000000	0,008956
276,000000	0,005586
275,000000	0,006091
274,000000	0,003134
273,000000	0,009415
272,000000	0,001894
271,000000	0,007769
270,000000	0,002600
269,000000	0,006665
268,000000	0,003779
267,000000	0,007763
266,000000	0,002737
265,000000	0,006129
264,000000	0,003204
263,000000	0,009267
262,000000	0,004657
261,000000	0,007770
260,000000	0,004690
259,000000	0,008866
258,000000	0,003372
257,000000	0,009333
256,000000	0,003724
255,000000	0,004320
254,000000	0,004375
253,000000	0,009926
252,000000	0,005469
251,000000	0,006437
250,000000	0,003324
249,000000	0,008388
248,000000	0,002935
247,000000	0,007868
246,000000	0,000867
245,000000	0,006837
244,000000	0,003888
243,000000	0,007010
242,000000	0,002867
241,000000	0,006700
240,000000	0,002835
239,000000	0,008096
238,000000	0,001482
237,000000	0,008764
236,000000	0,001145
235,000000	0,004665
234,000000	0,003923
233,000000	0,008732
232,000000	0,003866
231,000000	0,006580
230,000000	0,002681
229,000000	0,008186
228,000000	0,002549
227,000000	0,007497
226,000000	0,003569
225,000000	0,010699
224,000000	0,003502
223,000000	0,002398
222,000000	0,003632
221,000000	0,008673
220,000000	0,002307
219,000000	0,007819
218,000000	0,000952
217,000000	0,007150
216,000000	0,002548
215,000000	0,008230
214,000000	0,002571
213,000000	0,006513
212,000000	0,004106
211,000000	0,007544
210,000000	0,002190
209,000000	0,010101
208,000000	0,004367
207,000000	0,004057
206,000000	0,003698
205,000000	0,007348
204,000000	0,003603
203,000000	0,007742
202,000000	0,002709
201,000000	0,006075
200,000000	0,001137
