PE IR       SUBTECH     SPECTRUM    ASCII       PEDS        4.00        
   -1
ZnO on front of Si transmittance.ASC
25/04/22
10:14:10.00
25/04/22
10:14:10.00
Praktikum
Sample 022 By Praktikum date Dienstag, April 22 2025
200,000000
#HDR
-1
-1
#GR
cm-1
EGY
1.0
0.0
4000,000000
-1,000000
3801
8
0,254862
0,000233
#DATA
4000,000000	0,178616
3999,000000	0,178736
3998,000000	0,178769
3997,000000	0,179371
3996,000000	0,180532
3995,000000	0,181572
3994,000000	0,181631
3993,000000	0,180253
3992,000000	0,177744
3991,000000	0,175041
3990,000000	0,173101
3989,000000	0,172352
3988,000000	0,172688
3987,000000	0,173769
3986,000000	0,175231
3985,000000	0,176712
3984,000000	0,177815
3983,000000	0,178229
3982,000000	0,177830
3981,000000	0,176730
3980,000000	0,175438
3979,000000	0,174681
3978,000000	0,174727
3977,000000	0,175118
3976,000000	0,175271
3975,000000	0,175241
3974,000000	0,175619
3973,000000	0,176602
3972,000000	0,177567
3971,000000	0,177811
3970,000000	0,177388
3969,000000	0,177015
3968,000000	0,177301
3967,000000	0,178342
3966,000000	0,179883
3965,000000	0,181425
3964,000000	0,182352
3963,000000	0,182317
3962,000000	0,181561
3961,000000	0,180644
3960,000000	0,179755
3959,000000	0,178526
3958,000000	0,176694
3957,000000	0,174699
3956,000000	0,173351
3955,000000	0,173086
3954,000000	0,173677
3953,000000	0,174593
3952,000000	0,175347
3951,000000	0,175504
3950,000000	0,174850
3949,000000	0,173721
3948,000000	0,172967
3947,000000	0,173282
3946,000000	0,174441
3945,000000	0,175442
3944,000000	0,175477
3943,000000	0,174654
3942,000000	0,173794
3941,000000	0,173716
3940,000000	0,174686
3939,000000	0,176419
3938,000000	0,178385
3937,000000	0,180120
3936,000000	0,181336
3935,000000	0,181708
3934,000000	0,180714
3933,000000	0,178074
3932,000000	0,174507
3931,000000	0,171696
3930,000000	0,171076
3929,000000	0,172590
3928,000000	0,174783
3927,000000	0,176201
3926,000000	0,176493
3925,000000	0,176113
3924,000000	0,175524
3923,000000	0,174927
3922,000000	0,174409
3921,000000	0,174003
3920,000000	0,173524
3919,000000	0,172683
3918,000000	0,171550
3917,000000	0,170702
3916,000000	0,170772
3915,000000	0,171835
3914,000000	0,173239
3913,000000	0,174125
3912,000000	0,174205
3911,000000	0,174085
3910,000000	0,174621
3909,000000	0,175827
3908,000000	0,176518
3907,000000	0,175200
3906,000000	0,171405
3905,000000	0,166187
3904,000000	0,161291
3903,000000	0,157929
3902,000000	0,156198
3901,000000	0,155568
3900,000000	0,155874
3899,000000	0,157707
3898,000000	0,161730
3897,000000	0,167608
3896,000000	0,173753
3895,000000	0,178206
3894,000000	0,179639
3893,000000	0,177870
3892,000000	0,174006
3891,000000	0,170256
3890,000000	0,168823
3889,000000	0,170084
3888,000000	0,171929
3887,000000	0,171712
3886,000000	0,169079
3885,000000	0,166321
3884,000000	0,165689
3883,000000	0,166952
3882,000000	0,168009
3881,000000	0,167512
3880,000000	0,166466
3879,000000	0,167194
3878,000000	0,170824
3877,000000	0,175823
3876,000000	0,179021
3875,000000	0,178418
3874,000000	0,174950
3873,000000	0,171173
3872,000000	0,168182
3871,000000	0,164789
3870,000000	0,160203
3869,000000	0,156351
3868,000000	0,156207
3867,000000	0,159975
3866,000000	0,164294
3865,000000	0,165700
3864,000000	0,164215
3863,000000	0,162869
3862,000000	0,164303
3861,000000	0,168519
3860,000000	0,173532
3859,000000	0,177185
3858,000000	0,178131
3857,000000	0,175572
3856,000000	0,168802
3855,000000	0,157688
3854,000000	0,144230
3853,000000	0,133217
3852,000000	0,130131
3851,000000	0,137177
3850,000000	0,151135
3849,000000	0,165688
3848,000000	0,175967
3847,000000	0,180905
3846,000000	0,181940
3845,000000	0,180605
3844,000000	0,177829
3843,000000	0,174415
3842,000000	0,171015
3841,000000	0,167554
3840,000000	0,163425
3839,000000	0,158723
3838,000000	0,154936
3837,000000	0,153749
3836,000000	0,155475
3835,000000	0,158947
3834,000000	0,162823
3833,000000	0,166451
3832,000000	0,169593
3831,000000	0,172030
3830,000000	0,173781
3829,000000	0,175206
3828,000000	0,176357
3827,000000	0,176644
3826,000000	0,175691
3825,000000	0,173992
3824,000000	0,171857
3823,000000	0,168337
3822,000000	0,162608
3821,000000	0,156536
3820,000000	0,154159
3819,000000	0,157239
3818,000000	0,162515
3817,000000	0,164930
3816,000000	0,163178
3815,000000	0,161103
3814,000000	0,163209
3813,000000	0,170021
3812,000000	0,178305
3811,000000	0,184392
3810,000000	0,186347
3809,000000	0,183876
3808,000000	0,177892
3807,000000	0,170779
3806,000000	0,165910
3805,000000	0,165229
3804,000000	0,167009
3803,000000	0,167042
3802,000000	0,162973
3801,000000	0,157269
3800,000000	0,154935
3799,000000	0,158336
3798,000000	0,164941
3797,000000	0,170470
3796,000000	0,173281
3795,000000	0,175040
3794,000000	0,177839
3793,000000	0,181851
3792,000000	0,185974
3791,000000	0,189290
3790,000000	0,191502
3789,000000	0,192543
3788,000000	0,192247
3787,000000	0,190457
3786,000000	0,187299
3785,000000	0,183648
3784,000000	0,181184
3783,000000	0,181251
3782,000000	0,183351
3781,000000	0,185222
3780,000000	0,184907
3779,000000	0,182729
3778,000000	0,180937
3777,000000	0,181495
3776,000000	0,184413
3775,000000	0,187980
3774,000000	0,190199
3773,000000	0,189970
3772,000000	0,187348
3771,000000	0,183221
3770,000000	0,178965
3769,000000	0,176093
3768,000000	0,175486
3767,000000	0,176707
3766,000000	0,178368
3765,000000	0,179482
3764,000000	0,180191
3763,000000	0,180909
3762,000000	0,181200
3761,000000	0,180124
3760,000000	0,177534
3759,000000	0,174465
3758,000000	0,172271
3757,000000	0,171683
3756,000000	0,172564
3755,000000	0,173735
3754,000000	0,173045
3753,000000	0,168605
3752,000000	0,160468
3751,000000	0,151142
3750,000000	0,144315
3749,000000	0,142769
3748,000000	0,146307
3747,000000	0,151053
3746,000000	0,151730
3745,000000	0,146432
3744,000000	0,139606
3743,000000	0,138713
3742,000000	0,146866
3741,000000	0,159891
3740,000000	0,170697
3739,000000	0,175152
3738,000000	0,173351
3737,000000	0,167289
3736,000000	0,159596
3735,000000	0,153486
3734,000000	0,151230
3733,000000	0,152281
3732,000000	0,154513
3731,000000	0,157364
3730,000000	0,162081
3729,000000	0,168434
3728,000000	0,173311
3727,000000	0,174014
3726,000000	0,171727
3725,000000	0,169914
3724,000000	0,170038
3723,000000	0,170580
3722,000000	0,170096
3721,000000	0,169608
3720,000000	0,171140
3719,000000	0,174917
3718,000000	0,179195
3717,000000	0,182388
3716,000000	0,184225
3715,000000	0,184723
3714,000000	0,183032
3713,000000	0,178139
3712,000000	0,170681
3711,000000	0,163376
3710,000000	0,159288
3709,000000	0,159647
3708,000000	0,163420
3707,000000	0,168584
3706,000000	0,173415
3705,000000	0,176779
3704,000000	0,177933
3703,000000	0,176748
3702,000000	0,174299
3701,000000	0,172706
3700,000000	0,173745
3699,000000	0,177265
3698,000000	0,181141
3697,000000	0,183172
3696,000000	0,183043
3695,000000	0,182175
3694,000000	0,181800
3693,000000	0,181549
3692,000000	0,179938
3691,000000	0,175884
3690,000000	0,169756
3689,000000	0,163477
3688,000000	0,159777
3687,000000	0,160813
3686,000000	0,166612
3685,000000	0,174936
3684,000000	0,182856
3683,000000	0,188312
3682,000000	0,190552
3681,000000	0,189875
3680,000000	0,187377
3679,000000	0,184163
3678,000000	0,180068
3677,000000	0,173841
3676,000000	0,165622
3675,000000	0,158623
3674,000000	0,156699
3673,000000	0,159940
3672,000000	0,164041
3671,000000	0,164883
3670,000000	0,162867
3669,000000	0,162052
3668,000000	0,165640
3667,000000	0,173108
3666,000000	0,181319
3665,000000	0,187450
3664,000000	0,190667
3663,000000	0,191793
3662,000000	0,191983
3661,000000	0,191841
3660,000000	0,191488
3659,000000	0,190843
3658,000000	0,189486
3657,000000	0,186790
3656,000000	0,183099
3655,000000	0,180517
3654,000000	0,181120
3653,000000	0,183786
3652,000000	0,184029
3651,000000	0,178347
3650,000000	0,168276
3649,000000	0,159242
3648,000000	0,155768
3647,000000	0,158652
3646,000000	0,166037
3645,000000	0,175251
3644,000000	0,183572
3643,000000	0,188955
3642,000000	0,191269
3641,000000	0,192169
3640,000000	0,192977
3639,000000	0,193369
3638,000000	0,192656
3637,000000	0,191387
3636,000000	0,190663
3635,000000	0,190566
3634,000000	0,190276
3633,000000	0,189093
3632,000000	0,186212
3631,000000	0,180168
3630,000000	0,170407
3629,000000	0,159740
3628,000000	0,153598
3627,000000	0,155610
3626,000000	0,164214
3625,000000	0,174244
3624,000000	0,181290
3623,000000	0,184025
3622,000000	0,183298
3621,000000	0,180529
3620,000000	0,177004
3619,000000	0,173978
3618,000000	0,172632
3617,000000	0,173607
3616,000000	0,176439
3615,000000	0,179574
3614,000000	0,181308
3613,000000	0,181167
3612,000000	0,180090
3611,000000	0,179058
3610,000000	0,178064
3609,000000	0,176823
3608,000000	0,176009
3607,000000	0,176908
3606,000000	0,179878
3605,000000	0,183778
3604,000000	0,186985
3603,000000	0,188644
3602,000000	0,188898
3601,000000	0,188429
3600,000000	0,187870
3599,000000	0,187350
3598,000000	0,186511
3597,000000	0,185067
3596,000000	0,183238
3595,000000	0,181595
3594,000000	0,180763
3593,000000	0,181403
3592,000000	0,183779
3591,000000	0,186694
3590,000000	0,187527
3589,000000	0,184523
3588,000000	0,179111
3587,000000	0,174984
3586,000000	0,174742
3585,000000	0,178072
3584,000000	0,183115
3583,000000	0,188307
3582,000000	0,192594
3581,000000	0,195106
3580,000000	0,195703
3579,000000	0,195279
3578,000000	0,194745
3577,000000	0,193991
3576,000000	0,192527
3575,000000	0,190806
3574,000000	0,190066
3573,000000	0,190957
3572,000000	0,192805
3571,000000	0,194123
3570,000000	0,193465
3569,000000	0,190133
3568,000000	0,184836
3567,000000	0,179730
3566,000000	0,177220
3565,000000	0,178379
3564,000000	0,182378
3563,000000	0,187280
3562,000000	0,191219
3561,000000	0,193184
3560,000000	0,193357
3559,000000	0,192883
3558,000000	0,193087
3557,000000	0,194585
3556,000000	0,196968
3555,000000	0,199012
3554,000000	0,199394
3553,000000	0,197696
3552,000000	0,195013
3551,000000	0,193172
3550,000000	0,193040
3549,000000	0,193774
3548,000000	0,193999
3547,000000	0,193317
3546,000000	0,192450
3545,000000	0,192337
3544,000000	0,193459
3543,000000	0,195566
3542,000000	0,197606
3541,000000	0,198341
3540,000000	0,197616
3539,000000	0,196630
3538,000000	0,196426
3537,000000	0,196541
3536,000000	0,195944
3535,000000	0,194887
3534,000000	0,194724
3533,000000	0,195869
3532,000000	0,197009
3531,000000	0,196681
3530,000000	0,194958
3529,000000	0,193103
3528,000000	0,192137
3527,000000	0,192191
3526,000000	0,192791
3525,000000	0,193301
3524,000000	0,193426
3523,000000	0,193516
3522,000000	0,194157
3521,000000	0,195264
3520,000000	0,196012
3519,000000	0,196008
3518,000000	0,196003
3517,000000	0,196920
3516,000000	0,198444
3515,000000	0,199274
3514,000000	0,198720
3513,000000	0,197419
3512,000000	0,196353
3511,000000	0,195734
3510,000000	0,195301
3509,000000	0,195228
3508,000000	0,195990
3507,000000	0,197249
3506,000000	0,197633
3505,000000	0,196146
3504,000000	0,193569
3503,000000	0,191856
3502,000000	0,192187
3501,000000	0,193962
3500,000000	0,195728
3499,000000	0,196570
3498,000000	0,196453
3497,000000	0,195826
3496,000000	0,195263
3495,000000	0,195228
3494,000000	0,195849
3493,000000	0,196835
3492,000000	0,197815
3491,000000	0,198473
3490,000000	0,198386
3489,000000	0,197386
3488,000000	0,196233
3487,000000	0,196251
3486,000000	0,197710
3485,000000	0,199118
3484,000000	0,198840
3483,000000	0,197122
3482,000000	0,195678
3481,000000	0,195527
3480,000000	0,196114
3479,000000	0,196506
3478,000000	0,196521
3477,000000	0,196473
3476,000000	0,196596
3475,000000	0,197060
3474,000000	0,197929
3473,000000	0,198791
3472,000000	0,198983
3471,000000	0,198503
3470,000000	0,198114
3469,000000	0,198221
3468,000000	0,198252
3467,000000	0,197673
3466,000000	0,197067
3465,000000	0,197469
3464,000000	0,198904
3463,000000	0,200317
3462,000000	0,200991
3461,000000	0,201400
3460,000000	0,202452
3459,000000	0,204254
3458,000000	0,205895
3457,000000	0,206320
3456,000000	0,205244
3455,000000	0,203275
3454,000000	0,201357
3453,000000	0,200156
3452,000000	0,199836
3451,000000	0,200178
3450,000000	0,200695
3449,000000	0,200759
3448,000000	0,200042
3447,000000	0,198928
3446,000000	0,198183
3445,000000	0,198123
3444,000000	0,198225
3443,000000	0,197765
3442,000000	0,196778
3441,000000	0,196131
3440,000000	0,196617
3439,000000	0,198070
3438,000000	0,199448
3437,000000	0,199880
3436,000000	0,199558
3435,000000	0,199403
3434,000000	0,199819
3433,000000	0,200128
3432,000000	0,199564
3431,000000	0,198483
3430,000000	0,198065
3429,000000	0,198839
3428,000000	0,200040
3427,000000	0,200613
3426,000000	0,200336
3425,000000	0,199737
3424,000000	0,199378
3423,000000	0,199582
3422,000000	0,200481
3421,000000	0,201859
3420,000000	0,203021
3419,000000	0,203299
3418,000000	0,202841
3417,000000	0,202524
3416,000000	0,203022
3415,000000	0,204162
3414,000000	0,205178
3413,000000	0,205467
3412,000000	0,205042
3411,000000	0,204409
3410,000000	0,204083
3409,000000	0,204118
3408,000000	0,204054
3407,000000	0,203429
3406,000000	0,202330
3405,000000	0,201335
3404,000000	0,200927
3403,000000	0,201177
3402,000000	0,201981
3401,000000	0,203247
3400,000000	0,204689
3399,000000	0,205743
3398,000000	0,206054
3397,000000	0,205934
3396,000000	0,205972
3395,000000	0,206191
3394,000000	0,206030
3393,000000	0,205232
3392,000000	0,204317
3391,000000	0,203931
3390,000000	0,204072
3389,000000	0,204367
3388,000000	0,204777
3387,000000	0,205523
3386,000000	0,206469
3385,000000	0,207158
3384,000000	0,207476
3383,000000	0,207724
3382,000000	0,207935
3381,000000	0,207729
3380,000000	0,207071
3379,000000	0,206578
3378,000000	0,206676
3377,000000	0,206909
3376,000000	0,206623
3375,000000	0,206013
3374,000000	0,205852
3373,000000	0,206308
3372,000000	0,206751
3371,000000	0,206730
3370,000000	0,206606
3369,000000	0,206928
3368,000000	0,207536
3367,000000	0,207785
3366,000000	0,207466
3365,000000	0,207127
3364,000000	0,207323
3363,000000	0,207781
3362,000000	0,207685
3361,000000	0,206849
3360,000000	0,206219
3359,000000	0,206834
3358,000000	0,208520
3357,000000	0,210085
3356,000000	0,210705
3355,000000	0,210532
3354,000000	0,209983
3353,000000	0,209251
3352,000000	0,208749
3351,000000	0,209142
3350,000000	0,210304
3349,000000	0,210946
3348,000000	0,210144
3347,000000	0,208816
3346,000000	0,208736
3345,000000	0,210277
3344,000000	0,212055
3343,000000	0,212754
3342,000000	0,212346
3341,000000	0,211443
3340,000000	0,210374
3339,000000	0,209321
3338,000000	0,208591
3337,000000	0,208256
3336,000000	0,207996
3335,000000	0,207621
3334,000000	0,207423
3333,000000	0,207665
3332,000000	0,208182
3331,000000	0,208791
3330,000000	0,209624
3329,000000	0,210676
3328,000000	0,211403
3327,000000	0,211292
3326,000000	0,210577
3325,000000	0,209952
3324,000000	0,209745
3323,000000	0,209832
3322,000000	0,210175
3321,000000	0,210854
3320,000000	0,211545
3319,000000	0,211539
3318,000000	0,210615
3317,000000	0,209542
3316,000000	0,209368
3315,000000	0,210296
3314,000000	0,211535
3313,000000	0,212199
3312,000000	0,212123
3311,000000	0,211754
3310,000000	0,211526
3309,000000	0,211548
3308,000000	0,211719
3307,000000	0,211882
3306,000000	0,211876
3305,000000	0,211708
3304,000000	0,211709
3303,000000	0,212248
3302,000000	0,213220
3301,000000	0,214050
3300,000000	0,214293
3299,000000	0,213987
3298,000000	0,213322
3297,000000	0,212307
3296,000000	0,211053
3295,000000	0,210048
3294,000000	0,209755
3293,000000	0,210092
3292,000000	0,210659
3291,000000	0,211324
3290,000000	0,212221
3289,000000	0,213260
3288,000000	0,214017
3287,000000	0,214155
3286,000000	0,213732
3285,000000	0,213129
3284,000000	0,212842
3283,000000	0,213164
3282,000000	0,213863
3281,000000	0,214340
3280,000000	0,214310
3279,000000	0,214125
3278,000000	0,214177
3277,000000	0,214323
3276,000000	0,214250
3275,000000	0,213984
3274,000000	0,213624
3273,000000	0,213001
3272,000000	0,212274
3271,000000	0,212400
3270,000000	0,214077
3269,000000	0,216382
3268,000000	0,217443
3267,000000	0,216635
3266,000000	0,215162
3265,000000	0,214345
3264,000000	0,214258
3263,000000	0,214338
3262,000000	0,214493
3261,000000	0,214886
3260,000000	0,215282
3259,000000	0,215352
3258,000000	0,215195
3257,000000	0,215078
3256,000000	0,215016
3255,000000	0,215068
3254,000000	0,215537
3253,000000	0,216365
3252,000000	0,216731
3251,000000	0,215992
3250,000000	0,214737
3249,000000	0,214218
3248,000000	0,214847
3247,000000	0,215865
3246,000000	0,216422
3245,000000	0,216412
3244,000000	0,216201
3243,000000	0,216026
3242,000000	0,215896
3241,000000	0,215784
3240,000000	0,215765
3239,000000	0,215946
3238,000000	0,216272
3237,000000	0,216362
3236,000000	0,215776
3235,000000	0,214649
3234,000000	0,213821
3233,000000	0,214022
3232,000000	0,215053
3231,000000	0,216080
3230,000000	0,216655
3229,000000	0,217043
3228,000000	0,217592
3227,000000	0,218237
3226,000000	0,218785
3225,000000	0,219356
3224,000000	0,220161
3223,000000	0,220990
3222,000000	0,221318
3221,000000	0,220949
3220,000000	0,220313
3219,000000	0,219937
3218,000000	0,219706
3217,000000	0,219083
3216,000000	0,218058
3215,000000	0,217488
3214,000000	0,218108
3213,000000	0,219460
3212,000000	0,220265
3211,000000	0,219839
3210,000000	0,218764
3209,000000	0,218021
3208,000000	0,218059
3207,000000	0,218694
3206,000000	0,219399
3205,000000	0,219566
3204,000000	0,218879
3203,000000	0,217825
3202,000000	0,217327
3201,000000	0,217624
3200,000000	0,217988
3199,000000	0,217944
3198,000000	0,218083
3197,000000	0,219120
3196,000000	0,220570
3195,000000	0,221030
3194,000000	0,219821
3193,000000	0,217686
3192,000000	0,215959
3191,000000	0,215500
3190,000000	0,216363
3189,000000	0,217963
3188,000000	0,219390
3187,000000	0,219988
3186,000000	0,219862
3185,000000	0,219646
3184,000000	0,219669
3183,000000	0,219636
3182,000000	0,219178
3181,000000	0,218402
3180,000000	0,217721
3179,000000	0,217375
3178,000000	0,217374
3177,000000	0,217762
3176,000000	0,218645
3175,000000	0,219888
3174,000000	0,220936
3173,000000	0,221241
3172,000000	0,220980
3171,000000	0,220955
3170,000000	0,221588
3169,000000	0,222165
3168,000000	0,221601
3167,000000	0,219975
3166,000000	0,218678
3165,000000	0,218854
3164,000000	0,220161
3163,000000	0,221413
3162,000000	0,222012
3161,000000	0,222187
3160,000000	0,222132
3159,000000	0,221624
3158,000000	0,220590
3157,000000	0,219531
3156,000000	0,219080
3155,000000	0,219328
3154,000000	0,219737
3153,000000	0,219689
3152,000000	0,219155
3151,000000	0,218831
3150,000000	0,219480
3149,000000	0,221048
3148,000000	0,222590
3147,000000	0,223170
3146,000000	0,222636
3145,000000	0,221432
3144,000000	0,220050
3143,000000	0,218961
3142,000000	0,218726
3141,000000	0,219601
3140,000000	0,221165
3139,000000	0,222696
3138,000000	0,223861
3137,000000	0,224690
3136,000000	0,225091
3135,000000	0,224886
3134,000000	0,224267
3133,000000	0,223666
3132,000000	0,223110
3131,000000	0,222282
3130,000000	0,221315
3129,000000	0,220944
3128,000000	0,221588
3127,000000	0,222636
3126,000000	0,223101
3125,000000	0,222644
3124,000000	0,221665
3123,000000	0,220723
3122,000000	0,220221
3121,000000	0,220424
3120,000000	0,221319
3119,000000	0,222458
3118,000000	0,223329
3117,000000	0,223931
3116,000000	0,224677
3115,000000	0,225599
3114,000000	0,225980
3113,000000	0,225103
3112,000000	0,223257
3111,000000	0,221594
3110,000000	0,220826
3109,000000	0,220461
3108,000000	0,219673
3107,000000	0,218673
3106,000000	0,218607
3105,000000	0,220050
3104,000000	0,222192
3103,000000	0,223869
3102,000000	0,224882
3101,000000	0,225796
3100,000000	0,226722
3099,000000	0,226998
3098,000000	0,226142
3097,000000	0,224581
3096,000000	0,223233
3095,000000	0,222652
3094,000000	0,222747
3093,000000	0,223086
3092,000000	0,223299
3091,000000	0,223323
3090,000000	0,223293
3089,000000	0,223183
3088,000000	0,222666
3087,000000	0,221598
3086,000000	0,220553
3085,000000	0,220448
3084,000000	0,221469
3083,000000	0,222726
3082,000000	0,223171
3081,000000	0,222674
3080,000000	0,221950
3079,000000	0,221604
3078,000000	0,221630
3077,000000	0,221730
3076,000000	0,221835
3075,000000	0,222091
3074,000000	0,222497
3073,000000	0,222793
3072,000000	0,222789
3071,000000	0,222692
3070,000000	0,222872
3069,000000	0,223290
3068,000000	0,223437
3067,000000	0,222992
3066,000000	0,222306
3065,000000	0,221967
3064,000000	0,222090
3063,000000	0,222401
3062,000000	0,222823
3061,000000	0,223483
3060,000000	0,224157
3059,000000	0,224289
3058,000000	0,223762
3057,000000	0,223203
3056,000000	0,223229
3055,000000	0,223740
3054,000000	0,224227
3053,000000	0,224480
3052,000000	0,224619
3051,000000	0,224620
3050,000000	0,224253
3049,000000	0,223413
3048,000000	0,222264
3047,000000	0,221061
3046,000000	0,220098
3045,000000	0,219785
3044,000000	0,220390
3043,000000	0,221699
3042,000000	0,223111
3041,000000	0,224144
3040,000000	0,224747
3039,000000	0,225149
3038,000000	0,225502
3037,000000	0,225656
3036,000000	0,225302
3035,000000	0,224509
3034,000000	0,223931
3033,000000	0,224157
3032,000000	0,224895
3031,000000	0,225355
3030,000000	0,225463
3029,000000	0,225993
3028,000000	0,227205
3027,000000	0,228100
3026,000000	0,227684
3025,000000	0,226399
3024,000000	0,225395
3023,000000	0,224843
3022,000000	0,224033
3021,000000	0,223023
3020,000000	0,222878
3019,000000	0,224023
3018,000000	0,225462
3017,000000	0,226216
3016,000000	0,226506
3015,000000	0,226780
3014,000000	0,226481
3013,000000	0,224903
3012,000000	0,222775
3011,000000	0,221750
3010,000000	0,222354
3009,000000	0,223436
3008,000000	0,223851
3007,000000	0,223730
3006,000000	0,223771
3005,000000	0,224050
3004,000000	0,224167
3003,000000	0,224120
3002,000000	0,224329
3001,000000	0,224897
3000,000000	0,225381
2999,000000	0,225445
2998,000000	0,225379
2997,000000	0,225736
2996,000000	0,226548
2995,000000	0,227112
2994,000000	0,226664
2993,000000	0,225136
2992,000000	0,223211
2991,000000	0,221752
2990,000000	0,221325
2989,000000	0,222054
2988,000000	0,223492
2987,000000	0,224746
2986,000000	0,225210
2985,000000	0,225343
2984,000000	0,226170
2983,000000	0,227719
2982,000000	0,228649
2981,000000	0,227935
2980,000000	0,226409
2979,000000	0,225762
2978,000000	0,226352
2977,000000	0,226918
2976,000000	0,226336
2975,000000	0,224749
2974,000000	0,222901
2973,000000	0,221291
2972,000000	0,220268
2971,000000	0,220162
2970,000000	0,220794
2969,000000	0,221423
2968,000000	0,221591
2967,000000	0,221580
2966,000000	0,221761
2965,000000	0,221947
2964,000000	0,221720
2963,000000	0,220998
2962,000000	0,219953
2961,000000	0,218846
2960,000000	0,218190
2959,000000	0,218502
2958,000000	0,219505
2957,000000	0,220100
2956,000000	0,219652
2955,000000	0,218757
2954,000000	0,218272
2953,000000	0,218194
2952,000000	0,218116
2951,000000	0,218135
2950,000000	0,218397
2949,000000	0,218340
2948,000000	0,217437
2947,000000	0,216373
2946,000000	0,216314
2945,000000	0,217128
2944,000000	0,217540
2943,000000	0,217180
2942,000000	0,217177
2941,000000	0,218197
2940,000000	0,219100
2939,000000	0,218468
2938,000000	0,216670
2937,000000	0,215320
2936,000000	0,215082
2935,000000	0,215071
2934,000000	0,214363
2933,000000	0,213155
2932,000000	0,212174
2931,000000	0,211630
2930,000000	0,211279
2929,000000	0,211118
2928,000000	0,211469
2927,000000	0,212377
2926,000000	0,213335
2925,000000	0,213780
2924,000000	0,213716
2923,000000	0,213673
2922,000000	0,214152
2921,000000	0,215281
2920,000000	0,216873
2919,000000	0,218472
2918,000000	0,219345
2917,000000	0,218960
2916,000000	0,217763
2915,000000	0,217135
2914,000000	0,218073
2913,000000	0,220120
2912,000000	0,221953
2911,000000	0,222900
2910,000000	0,223309
2909,000000	0,223562
2908,000000	0,223429
2907,000000	0,222691
2906,000000	0,221831
2905,000000	0,221606
2904,000000	0,222125
2903,000000	0,222802
2902,000000	0,223127
2901,000000	0,223172
2900,000000	0,223276
2899,000000	0,223510
2898,000000	0,223683
2897,000000	0,223757
2896,000000	0,223993
2895,000000	0,224612
2894,000000	0,225458
2893,000000	0,226165
2892,000000	0,226538
2891,000000	0,226561
2890,000000	0,226112
2889,000000	0,225007
2888,000000	0,223489
2887,000000	0,222360
2886,000000	0,222320
2885,000000	0,223299
2884,000000	0,224604
2883,000000	0,225485
2882,000000	0,225480
2881,000000	0,224591
2880,000000	0,223450
2879,000000	0,222924
2878,000000	0,223132
2877,000000	0,223234
2876,000000	0,222629
2875,000000	0,221976
2874,000000	0,222309
2873,000000	0,223428
2872,000000	0,224009
2871,000000	0,223375
2870,000000	0,222332
2869,000000	0,222011
2868,000000	0,222587
2867,000000	0,223454
2866,000000	0,224066
2865,000000	0,224132
2864,000000	0,223478
2863,000000	0,222273
2862,000000	0,221100
2861,000000	0,220347
2860,000000	0,219736
2859,000000	0,218866
2858,000000	0,218019
2857,000000	0,217924
2856,000000	0,218752
2855,000000	0,219713
2854,000000	0,219861
2853,000000	0,219108
2852,000000	0,218267
2851,000000	0,218104
2850,000000	0,218587
2849,000000	0,219230
2848,000000	0,219961
2847,000000	0,221213
2846,000000	0,223080
2845,000000	0,224840
2844,000000	0,225632
2843,000000	0,225386
2842,000000	0,224795
2841,000000	0,224581
2840,000000	0,225014
2839,000000	0,225859
2838,000000	0,226430
2837,000000	0,226041
2836,000000	0,224881
2835,000000	0,224103
2834,000000	0,224560
2833,000000	0,225743
2832,000000	0,226599
2831,000000	0,227022
2830,000000	0,227660
2829,000000	0,228506
2828,000000	0,228810
2827,000000	0,228473
2826,000000	0,228437
2825,000000	0,229247
2824,000000	0,230170
2823,000000	0,230337
2822,000000	0,229956
2821,000000	0,229830
2820,000000	0,230252
2819,000000	0,230994
2818,000000	0,231867
2817,000000	0,232704
2816,000000	0,233163
2815,000000	0,232985
2814,000000	0,232211
2813,000000	0,230960
2812,000000	0,229392
2811,000000	0,228077
2810,000000	0,227743
2809,000000	0,228243
2808,000000	0,228440
2807,000000	0,227636
2806,000000	0,226544
2805,000000	0,226243
2804,000000	0,226766
2803,000000	0,227476
2802,000000	0,228252
2801,000000	0,229299
2800,000000	0,230098
2799,000000	0,229699
2798,000000	0,228159
2797,000000	0,226825
2796,000000	0,226833
2795,000000	0,227925
2794,000000	0,229038
2793,000000	0,229589
2792,000000	0,229878
2791,000000	0,230436
2790,000000	0,231265
2789,000000	0,231815
2788,000000	0,231679
2787,000000	0,231126
2786,000000	0,230734
2785,000000	0,230575
2784,000000	0,230202
2783,000000	0,229562
2782,000000	0,229409
2781,000000	0,230292
2780,000000	0,231549
2779,000000	0,232008
2778,000000	0,231532
2777,000000	0,231096
2776,000000	0,231391
2775,000000	0,232036
2774,000000	0,232263
2773,000000	0,231862
2772,000000	0,231256
2771,000000	0,230967
2770,000000	0,231145
2769,000000	0,231439
2768,000000	0,231392
2767,000000	0,231110
2766,000000	0,231282
2765,000000	0,232192
2764,000000	0,233027
2763,000000	0,232851
2762,000000	0,232121
2761,000000	0,232363
2760,000000	0,234082
2759,000000	0,235827
2758,000000	0,235884
2757,000000	0,234372
2756,000000	0,232972
2755,000000	0,232873
2754,000000	0,233643
2753,000000	0,234136
2752,000000	0,233844
2751,000000	0,233071
2750,000000	0,232214
2749,000000	0,231381
2748,000000	0,230666
2747,000000	0,230426
2746,000000	0,231095
2745,000000	0,232752
2744,000000	0,234965
2743,000000	0,236971
2742,000000	0,237998
2741,000000	0,237676
2740,000000	0,236357
2739,000000	0,234900
2738,000000	0,233942
2737,000000	0,233483
2736,000000	0,233337
2735,000000	0,233676
2734,000000	0,234696
2733,000000	0,235942
2732,000000	0,236553
2731,000000	0,236339
2730,000000	0,236083
2729,000000	0,236506
2728,000000	0,237324
2727,000000	0,237625
2726,000000	0,236852
2725,000000	0,235208
2724,000000	0,233435
2723,000000	0,232406
2722,000000	0,232603
2721,000000	0,233613
2720,000000	0,234411
2719,000000	0,234392
2718,000000	0,233880
2717,000000	0,233452
2716,000000	0,233145
2715,000000	0,232749
2714,000000	0,232456
2713,000000	0,232630
2712,000000	0,233054
2711,000000	0,232997
2710,000000	0,232126
2709,000000	0,231089
2708,000000	0,231092
2707,000000	0,232845
2706,000000	0,235669
2705,000000	0,237737
2704,000000	0,237625
2703,000000	0,235840
2702,000000	0,234323
2701,000000	0,234252
2700,000000	0,234944
2699,000000	0,235191
2698,000000	0,234821
2697,000000	0,234312
2696,000000	0,233682
2695,000000	0,232822
2694,000000	0,232471
2693,000000	0,233595
2692,000000	0,235788
2691,000000	0,237353
2690,000000	0,237219
2689,000000	0,235988
2688,000000	0,234891
2687,000000	0,234512
2686,000000	0,234772
2685,000000	0,235443
2684,000000	0,236246
2683,000000	0,236928
2682,000000	0,237552
2681,000000	0,238278
2680,000000	0,238762
2679,000000	0,238350
2678,000000	0,237109
2677,000000	0,236045
2676,000000	0,236002
2675,000000	0,236827
2674,000000	0,237859
2673,000000	0,238710
2672,000000	0,239279
2671,000000	0,239524
2670,000000	0,239585
2669,000000	0,239703
2668,000000	0,239618
2667,000000	0,238598
2666,000000	0,236614
2665,000000	0,234970
2664,000000	0,235005
2663,000000	0,236497
2662,000000	0,238078
2661,000000	0,239026
2660,000000	0,239740
2659,000000	0,240478
2658,000000	0,240651
2657,000000	0,239801
2656,000000	0,238546
2655,000000	0,237881
2654,000000	0,237967
2653,000000	0,238181
2652,000000	0,238145
2651,000000	0,238103
2650,000000	0,238322
2649,000000	0,238680
2648,000000	0,238978
2647,000000	0,239216
2646,000000	0,239349
2645,000000	0,239232
2644,000000	0,239120
2643,000000	0,239748
2642,000000	0,241333
2641,000000	0,242793
2640,000000	0,242661
2639,000000	0,240803
2638,000000	0,238632
2637,000000	0,237511
2636,000000	0,237495
2635,000000	0,237886
2634,000000	0,238352
2633,000000	0,238936
2632,000000	0,239382
2631,000000	0,239253
2630,000000	0,238679
2629,000000	0,238431
2628,000000	0,239090
2627,000000	0,240410
2626,000000	0,241596
2625,000000	0,242100
2624,000000	0,242118
2623,000000	0,242225
2622,000000	0,242518
2621,000000	0,242325
2620,000000	0,241045
2619,000000	0,239149
2618,000000	0,237910
2617,000000	0,238038
2616,000000	0,239067
2615,000000	0,240154
2614,000000	0,240860
2613,000000	0,240919
2612,000000	0,240132
2611,000000	0,239045
2610,000000	0,238971
2609,000000	0,240471
2608,000000	0,242267
2607,000000	0,242538
2606,000000	0,241005
2605,000000	0,239001
2604,000000	0,237696
2603,000000	0,237162
2602,000000	0,237074
2601,000000	0,237349
2600,000000	0,237894
2599,000000	0,238434
2598,000000	0,238858
2597,000000	0,239306
2596,000000	0,239846
2595,000000	0,240458
2594,000000	0,241202
2593,000000	0,241935
2592,000000	0,242125
2591,000000	0,241574
2590,000000	0,241080
2589,000000	0,241494
2588,000000	0,242369
2587,000000	0,242494
2586,000000	0,241603
2585,000000	0,240451
2584,000000	0,239342
2583,000000	0,237934
2582,000000	0,236680
2581,000000	0,236965
2580,000000	0,239166
2579,000000	0,241763
2578,000000	0,243117
2577,000000	0,243129
2576,000000	0,242515
2575,000000	0,241496
2574,000000	0,240165
2573,000000	0,239124
2572,000000	0,238745
2571,000000	0,238495
2570,000000	0,237993
2569,000000	0,237915
2568,000000	0,238854
2567,000000	0,240080
2566,000000	0,240720
2565,000000	0,241363
2564,000000	0,242998
2563,000000	0,244863
2562,000000	0,245117
2561,000000	0,243497
2560,000000	0,241665
2559,000000	0,240814
2558,000000	0,240551
2557,000000	0,240365
2556,000000	0,240612
2555,000000	0,241418
2554,000000	0,241999
2553,000000	0,241851
2552,000000	0,241613
2551,000000	0,241945
2550,000000	0,242506
2549,000000	0,242815
2548,000000	0,243217
2547,000000	0,244056
2546,000000	0,244625
2545,000000	0,244055
2544,000000	0,242757
2543,000000	0,241989
2542,000000	0,242195
2541,000000	0,242718
2540,000000	0,242993
2539,000000	0,243121
2538,000000	0,243300
2537,000000	0,243453
2536,000000	0,243568
2535,000000	0,243765
2534,000000	0,243944
2533,000000	0,243807
2532,000000	0,243303
2531,000000	0,242707
2530,000000	0,242262
2529,000000	0,242009
2528,000000	0,241887
2527,000000	0,241715
2526,000000	0,241297
2525,000000	0,240842
2524,000000	0,240954
2523,000000	0,241760
2522,000000	0,242456
2521,000000	0,242332
2520,000000	0,241902
2519,000000	0,242198
2518,000000	0,243199
2517,000000	0,243929
2516,000000	0,244001
2515,000000	0,244009
2514,000000	0,244243
2513,000000	0,244165
2512,000000	0,243579
2511,000000	0,243233
2510,000000	0,243651
2509,000000	0,244275
2508,000000	0,244551
2507,000000	0,244985
2506,000000	0,246133
2505,000000	0,247188
2504,000000	0,246820
2503,000000	0,245118
2502,000000	0,243527
2501,000000	0,242915
2500,000000	0,242782
2499,000000	0,242558
2498,000000	0,242489
2497,000000	0,242826
2496,000000	0,243040
2495,000000	0,242569
2494,000000	0,241824
2493,000000	0,241749
2492,000000	0,242582
2491,000000	0,243589
2490,000000	0,243993
2489,000000	0,243740
2488,000000	0,243359
2487,000000	0,243374
2486,000000	0,243858
2485,000000	0,244419
2484,000000	0,244686
2483,000000	0,244710
2482,000000	0,244661
2481,000000	0,244421
2480,000000	0,243978
2479,000000	0,243922
2478,000000	0,244915
2477,000000	0,246556
2476,000000	0,247390
2475,000000	0,246499
2474,000000	0,244692
2473,000000	0,243573
2472,000000	0,243638
2471,000000	0,243952
2470,000000	0,243611
2469,000000	0,242845
2468,000000	0,242529
2467,000000	0,243049
2466,000000	0,243979
2465,000000	0,244735
2464,000000	0,245199
2463,000000	0,245616
2462,000000	0,246070
2461,000000	0,246370
2460,000000	0,246564
2459,000000	0,247222
2458,000000	0,248770
2457,000000	0,250577
2456,000000	0,251179
2455,000000	0,249695
2454,000000	0,246882
2453,000000	0,244462
2452,000000	0,243544
2451,000000	0,244016
2450,000000	0,245181
2449,000000	0,246477
2448,000000	0,247510
2447,000000	0,247895
2446,000000	0,247464
2445,000000	0,246508
2444,000000	0,245568
2443,000000	0,245000
2442,000000	0,244809
2441,000000	0,244879
2440,000000	0,245198
2439,000000	0,245711
2438,000000	0,246094
2437,000000	0,245987
2436,000000	0,245503
2435,000000	0,245236
2434,000000	0,245529
2433,000000	0,246029
2432,000000	0,246291
2431,000000	0,246541
2430,000000	0,247276
2429,000000	0,248245
2428,000000	0,248531
2427,000000	0,247863
2426,000000	0,247232
2425,000000	0,247674
2424,000000	0,248827
2423,000000	0,249323
2422,000000	0,248505
2421,000000	0,247128
2420,000000	0,246310
2419,000000	0,246319
2418,000000	0,246609
2417,000000	0,246709
2416,000000	0,246774
2415,000000	0,247244
2414,000000	0,248135
2413,000000	0,248943
2412,000000	0,249285
2411,000000	0,249401
2410,000000	0,249750
2409,000000	0,250224
2408,000000	0,250154
2407,000000	0,249204
2406,000000	0,247948
2405,000000	0,247303
2404,000000	0,247580
2403,000000	0,248307
2402,000000	0,248788
2401,000000	0,248647
2400,000000	0,248015
2399,000000	0,247445
2398,000000	0,247506
2397,000000	0,248235
2396,000000	0,249091
2395,000000	0,249601
2394,000000	0,249875
2393,000000	0,250287
2392,000000	0,250800
2391,000000	0,250905
2390,000000	0,250264
2389,000000	0,249137
2388,000000	0,248013
2387,000000	0,246973
2386,000000	0,245491
2385,000000	0,242783
2384,000000	0,238292
2383,000000	0,231960
2382,000000	0,224141
2381,000000	0,215333
2380,000000	0,206080
2379,000000	0,196741
2378,000000	0,187211
2377,000000	0,177136
2376,000000	0,166593
2375,000000	0,156283
2374,000000	0,146641
2373,000000	0,137183
2372,000000	0,127360
2371,000000	0,117863
2370,000000	0,110058
2369,000000	0,104086
2368,000000	0,098617
2367,000000	0,092788
2366,000000	0,087405
2365,000000	0,083602
2364,000000	0,081208
2363,000000	0,079318
2362,000000	0,077746
2361,000000	0,076944
2360,000000	0,076810
2359,000000	0,076668
2358,000000	0,076526
2357,000000	0,077439
2356,000000	0,080399
2355,000000	0,085414
2354,000000	0,091874
2353,000000	0,099590
2352,000000	0,109121
2351,000000	0,120985
2350,000000	0,134157
2349,000000	0,145140
2348,000000	0,149165
2347,000000	0,143872
2346,000000	0,131948
2345,000000	0,119343
2344,000000	0,110614
2343,000000	0,106332
2342,000000	0,104726
2341,000000	0,104426
2340,000000	0,105054
2339,000000	0,106154
2338,000000	0,107027
2337,000000	0,107642
2336,000000	0,108815
2335,000000	0,110994
2334,000000	0,113273
2333,000000	0,114106
2332,000000	0,112975
2331,000000	0,111102
2330,000000	0,110414
2329,000000	0,111917
2328,000000	0,115110
2327,000000	0,118749
2326,000000	0,121959
2325,000000	0,124713
2324,000000	0,127496
2323,000000	0,130655
2322,000000	0,133969
2321,000000	0,136914
2320,000000	0,139578
2319,000000	0,143037
2318,000000	0,148277
2317,000000	0,154792
2316,000000	0,160918
2315,000000	0,165617
2314,000000	0,169359
2313,000000	0,173020
2312,000000	0,176644
2311,000000	0,179932
2310,000000	0,183303
2309,000000	0,187544
2308,000000	0,192636
2307,000000	0,197731
2306,000000	0,202218
2305,000000	0,206082
2304,000000	0,209358
2303,000000	0,211938
2302,000000	0,214006
2301,000000	0,216046
2300,000000	0,218255
2299,000000	0,220381
2298,000000	0,222193
2297,000000	0,223733
2296,000000	0,225171
2295,000000	0,226763
2294,000000	0,228856
2293,000000	0,231481
2292,000000	0,234074
2291,000000	0,236055
2290,000000	0,237527
2289,000000	0,238924
2288,000000	0,240218
2287,000000	0,241192
2286,000000	0,242248
2285,000000	0,244046
2284,000000	0,246320
2283,000000	0,247948
2282,000000	0,248370
2281,000000	0,248146
2280,000000	0,247925
2279,000000	0,247724
2278,000000	0,247488
2277,000000	0,247500
2276,000000	0,247741
2275,000000	0,247549
2274,000000	0,246531
2273,000000	0,245311
2272,000000	0,244830
2271,000000	0,245266
2270,000000	0,246120
2269,000000	0,247034
2268,000000	0,247844
2267,000000	0,248196
2266,000000	0,247899
2265,000000	0,247386
2264,000000	0,247250
2263,000000	0,247513
2262,000000	0,247808
2261,000000	0,248088
2260,000000	0,248575
2259,000000	0,248997
2258,000000	0,248598
2257,000000	0,247184
2256,000000	0,245710
2255,000000	0,245495
2254,000000	0,246981
2253,000000	0,249290
2252,000000	0,250823
2251,000000	0,250360
2250,000000	0,247990
2249,000000	0,245261
2248,000000	0,244136
2247,000000	0,245416
2246,000000	0,248057
2245,000000	0,250205
2244,000000	0,250877
2243,000000	0,250513
2242,000000	0,250001
2241,000000	0,249660
2240,000000	0,249433
2239,000000	0,249557
2238,000000	0,250286
2237,000000	0,251087
2236,000000	0,250925
2235,000000	0,249577
2234,000000	0,248144
2233,000000	0,247817
2232,000000	0,248516
2231,000000	0,249209
2230,000000	0,249270
2229,000000	0,249055
2228,000000	0,249295
2227,000000	0,250338
2226,000000	0,251876
2225,000000	0,253098
2224,000000	0,253302
2223,000000	0,252615
2222,000000	0,251830
2221,000000	0,251299
2220,000000	0,250485
2219,000000	0,249064
2218,000000	0,247912
2217,000000	0,248141
2216,000000	0,249534
2215,000000	0,250828
2214,000000	0,251431
2213,000000	0,251829
2212,000000	0,252271
2211,000000	0,252203
2210,000000	0,251325
2209,000000	0,250330
2208,000000	0,250001
2207,000000	0,250210
2206,000000	0,250262
2205,000000	0,249825
2204,000000	0,249153
2203,000000	0,248660
2202,000000	0,248561
2201,000000	0,248770
2200,000000	0,248999
2199,000000	0,249131
2198,000000	0,249428
2197,000000	0,250023
2196,000000	0,250359
2195,000000	0,249785
2194,000000	0,248678
2193,000000	0,248192
2192,000000	0,248691
2191,000000	0,249193
2190,000000	0,248800
2189,000000	0,247964
2188,000000	0,247786
2187,000000	0,248630
2186,000000	0,250011
2185,000000	0,251433
2184,000000	0,252644
2183,000000	0,253332
2182,000000	0,253196
2181,000000	0,252388
2180,000000	0,251504
2179,000000	0,251158
2178,000000	0,251661
2177,000000	0,252871
2176,000000	0,254053
2175,000000	0,254147
2174,000000	0,252600
2173,000000	0,249961
2172,000000	0,247506
2171,000000	0,246286
2170,000000	0,246545
2169,000000	0,247778
2168,000000	0,249140
2167,000000	0,250056
2166,000000	0,250601
2165,000000	0,251140
2164,000000	0,251635
2163,000000	0,251628
2162,000000	0,251006
2161,000000	0,250336
2160,000000	0,250184
2159,000000	0,250490
2158,000000	0,250898
2157,000000	0,251329
2156,000000	0,251841
2155,000000	0,252185
2154,000000	0,252052
2153,000000	0,251640
2152,000000	0,251516
2151,000000	0,251879
2150,000000	0,252253
2149,000000	0,251946
2148,000000	0,250744
2147,000000	0,249206
2146,000000	0,248297
2145,000000	0,248609
2144,000000	0,249937
2143,000000	0,251586
2142,000000	0,252856
2141,000000	0,253178
2140,000000	0,252246
2139,000000	0,250401
2138,000000	0,248579
2137,000000	0,247333
2136,000000	0,246234
2135,000000	0,244880
2134,000000	0,244125
2133,000000	0,245336
2132,000000	0,248404
2131,000000	0,251518
2130,000000	0,253151
2129,000000	0,253389
2128,000000	0,252925
2127,000000	0,251784
2126,000000	0,249731
2125,000000	0,247202
2124,000000	0,245103
2123,000000	0,244048
2122,000000	0,244274
2121,000000	0,245755
2120,000000	0,247876
2119,000000	0,249499
2118,000000	0,249948
2117,000000	0,249582
2116,000000	0,249091
2115,000000	0,248775
2114,000000	0,248840
2113,000000	0,249572
2112,000000	0,250649
2111,000000	0,251044
2110,000000	0,250334
2109,000000	0,249459
2108,000000	0,249309
2107,000000	0,249323
2106,000000	0,248546
2105,000000	0,247424
2104,000000	0,247143
2103,000000	0,247583
2102,000000	0,247467
2101,000000	0,246537
2100,000000	0,246062
2099,000000	0,246826
2098,000000	0,248028
2097,000000	0,248698
2096,000000	0,249095
2095,000000	0,249859
2094,000000	0,250738
2093,000000	0,251114
2092,000000	0,251161
2091,000000	0,251488
2090,000000	0,251960
2089,000000	0,251778
2088,000000	0,250563
2087,000000	0,248820
2086,000000	0,247351
2085,000000	0,246636
2084,000000	0,246735
2083,000000	0,247302
2082,000000	0,247757
2081,000000	0,247794
2080,000000	0,247662
2079,000000	0,247780
2078,000000	0,248198
2077,000000	0,248629
2076,000000	0,248992
2075,000000	0,249464
2074,000000	0,249982
2073,000000	0,250167
2072,000000	0,249804
2071,000000	0,249103
2070,000000	0,248437
2069,000000	0,248028
2068,000000	0,247900
2067,000000	0,247866
2066,000000	0,247524
2065,000000	0,246715
2064,000000	0,246075
2063,000000	0,246649
2062,000000	0,248594
2061,000000	0,250630
2060,000000	0,251261
2059,000000	0,250371
2058,000000	0,249201
2057,000000	0,248803
2056,000000	0,249048
2055,000000	0,249188
2054,000000	0,248897
2053,000000	0,248475
2052,000000	0,248296
2051,000000	0,248366
2050,000000	0,248371
2049,000000	0,248036
2048,000000	0,247546
2047,000000	0,247513
2046,000000	0,248257
2045,000000	0,249217
2044,000000	0,249471
2043,000000	0,248984
2042,000000	0,248828
2041,000000	0,249920
2040,000000	0,251950
2039,000000	0,253852
2038,000000	0,254862
2037,000000	0,254762
2036,000000	0,253586
2035,000000	0,251627
2034,000000	0,249581
2033,000000	0,248142
2032,000000	0,247452
2031,000000	0,247230
2030,000000	0,247275
2029,000000	0,247577
2028,000000	0,248174
2027,000000	0,249202
2026,000000	0,250793
2025,000000	0,252606
2024,000000	0,253775
2023,000000	0,253732
2022,000000	0,252797
2021,000000	0,251575
2020,000000	0,250194
2019,000000	0,248596
2018,000000	0,247122
2017,000000	0,246252
2016,000000	0,246060
2015,000000	0,246528
2014,000000	0,248003
2013,000000	0,250542
2012,000000	0,253108
2011,000000	0,254361
2010,000000	0,254166
2009,000000	0,253457
2008,000000	0,252781
2007,000000	0,252021
2006,000000	0,251498
2005,000000	0,252054
2004,000000	0,253635
2003,000000	0,254827
2002,000000	0,254408
2001,000000	0,252653
2000,000000	0,250778
1999,000000	0,249796
1998,000000	0,250196
1997,000000	0,251872
1996,000000	0,253748
1995,000000	0,254263
1994,000000	0,252906
1993,000000	0,250856
1992,000000	0,249693
1991,000000	0,249884
1990,000000	0,250821
1989,000000	0,251762
1988,000000	0,252236
1987,000000	0,252121
1986,000000	0,251884
1985,000000	0,252249
1984,000000	0,253196
1983,000000	0,253823
1982,000000	0,253525
1981,000000	0,252769
1980,000000	0,252341
1979,000000	0,252359
1978,000000	0,252579
1977,000000	0,253023
1976,000000	0,253647
1975,000000	0,253865
1974,000000	0,253242
1973,000000	0,252373
1972,000000	0,252249
1971,000000	0,252893
1970,000000	0,253272
1969,000000	0,252570
1968,000000	0,251086
1967,000000	0,249822
1966,000000	0,249529
1965,000000	0,250181
1964,000000	0,251137
1963,000000	0,251733
1962,000000	0,251756
1961,000000	0,251336
1960,000000	0,250598
1959,000000	0,249713
1958,000000	0,249159
1957,000000	0,249385
1956,000000	0,250131
1955,000000	0,250584
1954,000000	0,250415
1953,000000	0,250175
1952,000000	0,250449
1951,000000	0,251145
1950,000000	0,251849
1949,000000	0,252408
1948,000000	0,252844
1947,000000	0,253045
1946,000000	0,252699
1945,000000	0,251344
1944,000000	0,248697
1943,000000	0,245417
1942,000000	0,243341
1941,000000	0,244073
1940,000000	0,247112
1939,000000	0,250147
1938,000000	0,251473
1937,000000	0,251406
1936,000000	0,251119
1935,000000	0,251063
1934,000000	0,251063
1933,000000	0,251127
1932,000000	0,251390
1931,000000	0,251619
1930,000000	0,251374
1929,000000	0,250563
1928,000000	0,249600
1927,000000	0,249095
1926,000000	0,249239
1925,000000	0,249261
1924,000000	0,247962
1923,000000	0,245390
1922,000000	0,243393
1921,000000	0,243327
1920,000000	0,243849
1919,000000	0,242652
1918,000000	0,240138
1917,000000	0,239316
1916,000000	0,241587
1915,000000	0,244773
1914,000000	0,246312
1913,000000	0,246511
1912,000000	0,247148
1911,000000	0,248430
1910,000000	0,249086
1909,000000	0,248611
1908,000000	0,247787
1907,000000	0,247431
1906,000000	0,247889
1905,000000	0,249283
1904,000000	0,251155
1903,000000	0,252292
1902,000000	0,251905
1901,000000	0,250576
1900,000000	0,249331
1899,000000	0,248386
1898,000000	0,247531
1897,000000	0,246958
1896,000000	0,246852
1895,000000	0,246896
1894,000000	0,246975
1893,000000	0,247444
1892,000000	0,247859
1891,000000	0,246671
1890,000000	0,243453
1889,000000	0,240337
1888,000000	0,239777
1887,000000	0,241658
1886,000000	0,243955
1885,000000	0,245497
1884,000000	0,246524
1883,000000	0,247296
1882,000000	0,247859
1881,000000	0,248708
1880,000000	0,250142
1879,000000	0,251256
1878,000000	0,250938
1877,000000	0,249594
1876,000000	0,248675
1875,000000	0,248788
1874,000000	0,249453
1873,000000	0,249982
1872,000000	0,249287
1871,000000	0,245701
1870,000000	0,239015
1869,000000	0,232326
1868,000000	0,229783
1867,000000	0,232372
1866,000000	0,237431
1865,000000	0,242135
1864,000000	0,245605
1863,000000	0,247796
1862,000000	0,248443
1861,000000	0,247803
1860,000000	0,246946
1859,000000	0,246625
1858,000000	0,246764
1857,000000	0,247158
1856,000000	0,247655
1855,000000	0,247764
1854,000000	0,247283
1853,000000	0,247015
1852,000000	0,247553
1851,000000	0,247840
1850,000000	0,246690
1849,000000	0,245155
1848,000000	0,244957
1847,000000	0,244590
1846,000000	0,240081
1845,000000	0,230897
1844,000000	0,222709
1843,000000	0,222098
1842,000000	0,229466
1841,000000	0,239065
1840,000000	0,245127
1839,000000	0,246379
1838,000000	0,245182
1837,000000	0,244200
1836,000000	0,244552
1835,000000	0,246027
1834,000000	0,247645
1833,000000	0,247737
1832,000000	0,244498
1831,000000	0,238003
1830,000000	0,231614
1829,000000	0,229690
1828,000000	0,232850
1827,000000	0,236915
1826,000000	0,237918
1825,000000	0,236874
1824,000000	0,237762
1823,000000	0,241759
1822,000000	0,246178
1821,000000	0,248584
1820,000000	0,249207
1819,000000	0,249006
1818,000000	0,247972
1817,000000	0,246377
1816,000000	0,245554
1815,000000	0,246110
1814,000000	0,246685
1813,000000	0,245677
1812,000000	0,243092
1811,000000	0,240137
1810,000000	0,238082
1809,000000	0,237994
1808,000000	0,240239
1807,000000	0,243613
1806,000000	0,245993
1805,000000	0,246285
1804,000000	0,244767
1803,000000	0,241718
1802,000000	0,237372
1801,000000	0,233222
1800,000000	0,231478
1799,000000	0,232612
1798,000000	0,235013
1797,000000	0,237076
1796,000000	0,237826
1795,000000	0,235485
1794,000000	0,228472
1793,000000	0,218933
1792,000000	0,212762
1791,000000	0,214185
1790,000000	0,221699
1789,000000	0,230486
1788,000000	0,236759
1787,000000	0,238963
1786,000000	0,237353
1785,000000	0,234293
1784,000000	0,233019
1783,000000	0,234114
1782,000000	0,234854
1781,000000	0,233576
1780,000000	0,232485
1779,000000	0,233873
1778,000000	0,236071
1777,000000	0,235723
1776,000000	0,232152
1775,000000	0,226483
1774,000000	0,218654
1773,000000	0,209293
1772,000000	0,202917
1771,000000	0,204345
1770,000000	0,211949
1769,000000	0,218825
1768,000000	0,221473
1767,000000	0,223496
1766,000000	0,228697
1765,000000	0,234370
1764,000000	0,234574
1763,000000	0,228137
1762,000000	0,220547
1761,000000	0,217899
1760,000000	0,220892
1759,000000	0,224890
1758,000000	0,225266
1757,000000	0,222593
1756,000000	0,221719
1755,000000	0,225144
1754,000000	0,228573
1753,000000	0,225333
1752,000000	0,215031
1751,000000	0,204677
1750,000000	0,200855
1749,000000	0,203612
1748,000000	0,208990
1747,000000	0,214302
1746,000000	0,218455
1745,000000	0,220078
1744,000000	0,218627
1743,000000	0,215936
1742,000000	0,213614
1741,000000	0,210681
1740,000000	0,206920
1739,000000	0,206351
1738,000000	0,211897
1737,000000	0,217411
1736,000000	0,211849
1735,000000	0,193928
1734,000000	0,177270
1733,000000	0,176168
1732,000000	0,189858
1731,000000	0,205689
1730,000000	0,214749
1729,000000	0,218701
1728,000000	0,222117
1727,000000	0,225171
1726,000000	0,225968
1725,000000	0,224962
1724,000000	0,224089
1723,000000	0,223952
1722,000000	0,223941
1721,000000	0,222427
1720,000000	0,216041
1719,000000	0,202511
1718,000000	0,186133
1717,000000	0,176477
1716,000000	0,178842
1715,000000	0,188798
1714,000000	0,199117
1713,000000	0,207925
1712,000000	0,216223
1711,000000	0,221940
1710,000000	0,222362
1709,000000	0,219663
1708,000000	0,217488
1707,000000	0,214432
1706,000000	0,207753
1705,000000	0,201493
1704,000000	0,201712
1703,000000	0,203861
1702,000000	0,195781
1701,000000	0,176490
1700,000000	0,161820
1699,000000	0,164234
1698,000000	0,175922
1697,000000	0,180468
1696,000000	0,175884
1695,000000	0,175447
1694,000000	0,187592
1693,000000	0,205557
1692,000000	0,217515
1691,000000	0,219670
1690,000000	0,216493
1689,000000	0,213574
1688,000000	0,212534
1687,000000	0,209564
1686,000000	0,198741
1685,000000	0,180389
1684,000000	0,165291
1683,000000	0,165468
1682,000000	0,180304
1681,000000	0,197392
1680,000000	0,207481
1679,000000	0,211753
1678,000000	0,213315
1677,000000	0,209873
1676,000000	0,200296
1675,000000	0,191815
1674,000000	0,192710
1673,000000	0,200481
1672,000000	0,204304
1671,000000	0,199040
1670,000000	0,190737
1669,000000	0,188220
1668,000000	0,193996
1667,000000	0,204302
1666,000000	0,213588
1665,000000	0,217030
1664,000000	0,213004
1663,000000	0,205661
1662,000000	0,202412
1661,000000	0,206505
1660,000000	0,213758
1659,000000	0,218160
1658,000000	0,218438
1657,000000	0,215633
1656,000000	0,206819
1655,000000	0,187029
1654,000000	0,159490
1653,000000	0,139158
1652,000000	0,140672
1651,000000	0,162799
1650,000000	0,187987
1649,000000	0,198570
1648,000000	0,191845
1647,000000	0,179108
1646,000000	0,173296
1645,000000	0,179574
1644,000000	0,194397
1643,000000	0,209895
1642,000000	0,219139
1641,000000	0,220483
1640,000000	0,217382
1639,000000	0,212679
1638,000000	0,204474
1637,000000	0,190569
1636,000000	0,175795
1635,000000	0,170273
1634,000000	0,178718
1633,000000	0,194894
1632,000000	0,208386
1631,000000	0,214092
1630,000000	0,213501
1629,000000	0,209995
1628,000000	0,206279
1627,000000	0,204436
1626,000000	0,204453
1625,000000	0,203395
1624,000000	0,199118
1623,000000	0,194535
1622,000000	0,195121
1621,000000	0,201571
1620,000000	0,207378
1619,000000	0,205193
1618,000000	0,194498
1617,000000	0,182546
1616,000000	0,178264
1615,000000	0,184812
1614,000000	0,197093
1613,000000	0,206457
1612,000000	0,208387
1611,000000	0,205474
1610,000000	0,202839
1609,000000	0,202448
1608,000000	0,203053
1607,000000	0,203810
1606,000000	0,205166
1605,000000	0,206816
1604,000000	0,207453
1603,000000	0,206851
1602,000000	0,206161
1601,000000	0,205992
1600,000000	0,205993
1599,000000	0,206462
1598,000000	0,208301
1597,000000	0,210926
1596,000000	0,212215
1595,000000	0,211351
1594,000000	0,209968
1593,000000	0,209647
1592,000000	0,209905
1591,000000	0,209670
1590,000000	0,209187
1589,000000	0,209181
1588,000000	0,209389
1587,000000	0,209274
1586,000000	0,209267
1585,000000	0,209917
1584,000000	0,210537
1583,000000	0,210138
1582,000000	0,209360
1581,000000	0,209794
1580,000000	0,210945
1579,000000	0,208952
1578,000000	0,200018
1577,000000	0,185749
1576,000000	0,174277
1575,000000	0,174068
1574,000000	0,185345
1573,000000	0,198430
1572,000000	0,202438
1571,000000	0,195507
1570,000000	0,185542
1569,000000	0,181448
1568,000000	0,185155
1567,000000	0,192011
1566,000000	0,196759
1565,000000	0,198044
1564,000000	0,197875
1563,000000	0,196982
1562,000000	0,191139
1561,000000	0,174427
1560,000000	0,148708
1559,000000	0,127479
1558,000000	0,125010
1557,000000	0,141164
1556,000000	0,161518
1555,000000	0,173701
1554,000000	0,178651
1553,000000	0,183544
1552,000000	0,189657
1551,000000	0,193108
1550,000000	0,193536
1549,000000	0,194899
1548,000000	0,198011
1547,000000	0,198625
1546,000000	0,193938
1545,000000	0,186342
1544,000000	0,179025
1543,000000	0,171420
1542,000000	0,161292
1541,000000	0,149287
1540,000000	0,140187
1539,000000	0,140350
1538,000000	0,152942
1537,000000	0,173149
1536,000000	0,189150
1535,000000	0,192106
1534,000000	0,185418
1533,000000	0,180813
1532,000000	0,184875
1531,000000	0,193415
1530,000000	0,198973
1529,000000	0,199067
1528,000000	0,195387
1527,000000	0,190114
1526,000000	0,185800
1525,000000	0,184534
1524,000000	0,184032
1523,000000	0,178477
1522,000000	0,167264
1521,000000	0,158719
1520,000000	0,160310
1519,000000	0,168344
1518,000000	0,173220
1517,000000	0,172845
1516,000000	0,174005
1515,000000	0,180839
1514,000000	0,188694
1513,000000	0,191734
1512,000000	0,190759
1511,000000	0,189634
1510,000000	0,187369
1509,000000	0,178586
1508,000000	0,161717
1507,000000	0,143893
1506,000000	0,136427
1505,000000	0,145379
1504,000000	0,165908
1503,000000	0,185828
1502,000000	0,195367
1501,000000	0,193707
1500,000000	0,186293
1499,000000	0,177671
1498,000000	0,169149
1497,000000	0,162150
1496,000000	0,160097
1495,000000	0,164979
1494,000000	0,173673
1493,000000	0,179636
1492,000000	0,178649
1491,000000	0,172557
1490,000000	0,167402
1489,000000	0,167728
1488,000000	0,172931
1487,000000	0,179362
1486,000000	0,185102
1485,000000	0,190667
1484,000000	0,195422
1483,000000	0,196795
1482,000000	0,194558
1481,000000	0,192674
1480,000000	0,194036
1479,000000	0,195937
1478,000000	0,194185
1477,000000	0,189290
1476,000000	0,184556
1475,000000	0,179778
1474,000000	0,172428
1473,000000	0,164406
1472,000000	0,162348
1471,000000	0,169656
1470,000000	0,182062
1469,000000	0,192328
1468,000000	0,196131
1467,000000	0,192863
1466,000000	0,184799
1465,000000	0,177261
1464,000000	0,175795
1463,000000	0,180814
1462,000000	0,186853
1461,000000	0,188192
1460,000000	0,182740
1459,000000	0,171003
1458,000000	0,155850
1457,000000	0,144523
1456,000000	0,145272
1455,000000	0,158519
1454,000000	0,174832
1453,000000	0,184689
1452,000000	0,187280
1451,000000	0,186939
1450,000000	0,185400
1449,000000	0,182149
1448,000000	0,179271
1447,000000	0,180353
1446,000000	0,185218
1445,000000	0,190095
1444,000000	0,192532
1443,000000	0,193128
1442,000000	0,193025
1441,000000	0,192405
1440,000000	0,190748
1439,000000	0,186491
1438,000000	0,178111
1437,000000	0,168168
1436,000000	0,163776
1435,000000	0,169208
1434,000000	0,179789
1433,000000	0,186937
1432,000000	0,187742
1431,000000	0,185768
1430,000000	0,184373
1429,000000	0,183913
1428,000000	0,184645
1427,000000	0,187036
1426,000000	0,189083
1425,000000	0,188118
1424,000000	0,185564
1423,000000	0,185006
1422,000000	0,185153
1421,000000	0,180434
1420,000000	0,170177
1419,000000	0,162006
1418,000000	0,162819
1417,000000	0,170677
1416,000000	0,178573
1415,000000	0,182966
1414,000000	0,184999
1413,000000	0,185936
1412,000000	0,185734
1411,000000	0,184996
1410,000000	0,184969
1409,000000	0,185578
1408,000000	0,185478
1407,000000	0,183825
1406,000000	0,181016
1405,000000	0,178353
1404,000000	0,177593
1403,000000	0,179314
1402,000000	0,181121
1401,000000	0,179488
1400,000000	0,174548
1399,000000	0,170707
1398,000000	0,170988
1397,000000	0,173143
1396,000000	0,173347
1395,000000	0,171814
1394,000000	0,171947
1393,000000	0,175364
1392,000000	0,180399
1391,000000	0,184458
1390,000000	0,185576
1389,000000	0,182663
1388,000000	0,176843
1387,000000	0,172010
1386,000000	0,171569
1385,000000	0,174887
1384,000000	0,178769
1383,000000	0,181639
1382,000000	0,184212
1381,000000	0,186504
1380,000000	0,187168
1379,000000	0,186027
1378,000000	0,184629
1377,000000	0,183638
1376,000000	0,181936
1375,000000	0,179275
1374,000000	0,177651
1373,000000	0,178765
1372,000000	0,181480
1371,000000	0,183250
1370,000000	0,183109
1369,000000	0,182022
1368,000000	0,181201
1367,000000	0,181033
1366,000000	0,181088
1365,000000	0,180382
1364,000000	0,178159
1363,000000	0,175220
1362,000000	0,173800
1361,000000	0,175334
1360,000000	0,178834
1359,000000	0,182043
1358,000000	0,183863
1357,000000	0,184793
1356,000000	0,185383
1355,000000	0,185531
1354,000000	0,185369
1353,000000	0,185703
1352,000000	0,186813
1351,000000	0,187603
1350,000000	0,186835
1349,000000	0,184913
1348,000000	0,183518
1347,000000	0,183401
1346,000000	0,183552
1345,000000	0,182792
1344,000000	0,181356
1343,000000	0,180248
1342,000000	0,179611
1341,000000	0,178714
1340,000000	0,177328
1339,000000	0,176216
1338,000000	0,176116
1337,000000	0,177009
1336,000000	0,178542
1335,000000	0,180430
1334,000000	0,182197
1333,000000	0,183155
1332,000000	0,183074
1331,000000	0,182447
1330,000000	0,181869
1329,000000	0,181515
1328,000000	0,181429
1327,000000	0,181709
1326,000000	0,182109
1325,000000	0,182036
1324,000000	0,181420
1323,000000	0,181039
1322,000000	0,181442
1321,000000	0,182036
1320,000000	0,181827
1319,000000	0,180800
1318,000000	0,179870
1317,000000	0,179619
1316,000000	0,179664
1315,000000	0,179379
1314,000000	0,178819
1313,000000	0,178670
1312,000000	0,179388
1311,000000	0,180556
1310,000000	0,181236
1309,000000	0,181009
1308,000000	0,180572
1307,000000	0,180877
1306,000000	0,181807
1305,000000	0,182329
1304,000000	0,181869
1303,000000	0,180897
1302,000000	0,180101
1301,000000	0,179626
1300,000000	0,179388
1299,000000	0,179480
1298,000000	0,179883
1297,000000	0,180312
1296,000000	0,180654
1295,000000	0,181094
1294,000000	0,181516
1293,000000	0,181344
1292,000000	0,180477
1291,000000	0,179723
1290,000000	0,179687
1289,000000	0,179897
1288,000000	0,179682
1287,000000	0,179345
1286,000000	0,179558
1285,000000	0,180018
1284,000000	0,179792
1283,000000	0,178870
1282,000000	0,178374
1281,000000	0,178956
1280,000000	0,179963
1279,000000	0,180536
1278,000000	0,180664
1277,000000	0,180715
1276,000000	0,180625
1275,000000	0,180142
1274,000000	0,179414
1273,000000	0,178791
1272,000000	0,178246
1271,000000	0,177462
1270,000000	0,176443
1269,000000	0,175622
1268,000000	0,175274
1267,000000	0,175121
1266,000000	0,174652
1265,000000	0,173668
1264,000000	0,172450
1263,000000	0,171481
1262,000000	0,171113
1261,000000	0,171401
1260,000000	0,172049
1259,000000	0,172521
1258,000000	0,172505
1257,000000	0,172327
1256,000000	0,172690
1255,000000	0,173806
1254,000000	0,174984
1253,000000	0,175449
1252,000000	0,175320
1251,000000	0,175296
1250,000000	0,175577
1249,000000	0,175721
1248,000000	0,175642
1247,000000	0,175979
1246,000000	0,177058
1245,000000	0,178048
1244,000000	0,177809
1243,000000	0,176309
1242,000000	0,174639
1241,000000	0,173854
1240,000000	0,174129
1239,000000	0,174900
1238,000000	0,175435
1237,000000	0,175247
1236,000000	0,174448
1235,000000	0,173862
1234,000000	0,174279
1233,000000	0,175411
1232,000000	0,175994
1231,000000	0,175181
1230,000000	0,173619
1229,000000	0,172721
1228,000000	0,173011
1227,000000	0,173647
1226,000000	0,173552
1225,000000	0,172556
1224,000000	0,171230
1223,000000	0,170051
1222,000000	0,169235
1221,000000	0,169043
1220,000000	0,169617
1219,000000	0,170479
1218,000000	0,170805
1217,000000	0,170403
1216,000000	0,169883
1215,000000	0,169637
1214,000000	0,169260
1213,000000	0,168416
1212,000000	0,167676
1211,000000	0,167696
1210,000000	0,168130
1209,000000	0,168143
1208,000000	0,167636
1207,000000	0,167225
1206,000000	0,167053
1205,000000	0,166561
1204,000000	0,165588
1203,000000	0,164832
1202,000000	0,164816
1201,000000	0,165052
1200,000000	0,164763
1199,000000	0,163890
1198,000000	0,162921
1197,000000	0,162143
1196,000000	0,161558
1195,000000	0,161257
1194,000000	0,161343
1193,000000	0,161694
1192,000000	0,162160
1191,000000	0,162779
1190,000000	0,163360
1189,000000	0,163212
1188,000000	0,161965
1187,000000	0,160418
1186,000000	0,159832
1185,000000	0,160293
1184,000000	0,160555
1183,000000	0,159775
1182,000000	0,158611
1181,000000	0,158100
1180,000000	0,158165
1179,000000	0,157967
1178,000000	0,157430
1177,000000	0,157417
1176,000000	0,158208
1175,000000	0,158751
1174,000000	0,158050
1173,000000	0,156653
1172,000000	0,155927
1171,000000	0,156178
1170,000000	0,156409
1169,000000	0,155910
1168,000000	0,155100
1167,000000	0,154477
1166,000000	0,153656
1165,000000	0,152136
1164,000000	0,150398
1163,000000	0,149404
1162,000000	0,149258
1161,000000	0,149197
1160,000000	0,148774
1159,000000	0,148392
1158,000000	0,148605
1157,000000	0,149365
1156,000000	0,150156
1155,000000	0,150552
1154,000000	0,150428
1153,000000	0,149861
1152,000000	0,148997
1151,000000	0,147992
1150,000000	0,147077
1149,000000	0,146604
1148,000000	0,146774
1147,000000	0,147210
1146,000000	0,147105
1145,000000	0,146098
1144,000000	0,144725
1143,000000	0,143702
1142,000000	0,143153
1141,000000	0,142877
1140,000000	0,142962
1139,000000	0,143438
1138,000000	0,143672
1137,000000	0,142980
1136,000000	0,141699
1135,000000	0,140902
1134,000000	0,140946
1133,000000	0,140979
1132,000000	0,140150
1131,000000	0,138698
1130,000000	0,137493
1129,000000	0,136944
1128,000000	0,136736
1127,000000	0,136439
1126,000000	0,135987
1125,000000	0,135569
1124,000000	0,135269
1123,000000	0,134917
1122,000000	0,134363
1121,000000	0,133803
1120,000000	0,133566
1119,000000	0,133446
1118,000000	0,132772
1117,000000	0,131390
1116,000000	0,130016
1115,000000	0,129294
1114,000000	0,128965
1113,000000	0,128570
1112,000000	0,128426
1111,000000	0,128983
1110,000000	0,129594
1109,000000	0,129027
1108,000000	0,127292
1107,000000	0,125893
1106,000000	0,125997
1105,000000	0,127140
1104,000000	0,128110
1103,000000	0,128336
1102,000000	0,127985
1101,000000	0,127387
1100,000000	0,126817
1099,000000	0,126411
1098,000000	0,125955
1097,000000	0,125136
1096,000000	0,124133
1095,000000	0,123483
1094,000000	0,123222
1093,000000	0,122846
1092,000000	0,122300
1091,000000	0,122226
1090,000000	0,122793
1089,000000	0,123070
1088,000000	0,122174
1087,000000	0,120544
1086,000000	0,119534
1085,000000	0,119869
1084,000000	0,120956
1083,000000	0,121543
1082,000000	0,120840
1081,000000	0,119236
1080,000000	0,118090
1079,000000	0,118404
1078,000000	0,119560
1077,000000	0,119837
1076,000000	0,118443
1075,000000	0,116479
1074,000000	0,115538
1073,000000	0,115952
1072,000000	0,116837
1071,000000	0,117416
1070,000000	0,117587
1069,000000	0,117533
1068,000000	0,117450
1067,000000	0,117508
1066,000000	0,117608
1065,000000	0,117381
1064,000000	0,116688
1063,000000	0,115910
1062,000000	0,115409
1061,000000	0,115009
1060,000000	0,114410
1059,000000	0,113718
1058,000000	0,113135
1057,000000	0,112445
1056,000000	0,111379
1055,000000	0,110199
1054,000000	0,109330
1053,000000	0,108663
1052,000000	0,107856
1051,000000	0,107121
1050,000000	0,107030
1049,000000	0,107605
1048,000000	0,108175
1047,000000	0,108298
1046,000000	0,108210
1045,000000	0,108297
1044,000000	0,108688
1043,000000	0,109386
1042,000000	0,110366
1041,000000	0,111348
1040,000000	0,111889
1039,000000	0,111906
1038,000000	0,111763
1037,000000	0,111674
1036,000000	0,111436
1035,000000	0,110915
1034,000000	0,110402
1033,000000	0,110177
1032,000000	0,110043
1031,000000	0,109722
1030,000000	0,109471
1029,000000	0,109801
1028,000000	0,110571
1027,000000	0,110898
1026,000000	0,110184
1025,000000	0,108904
1024,000000	0,108016
1023,000000	0,107814
1022,000000	0,107838
1021,000000	0,107790
1020,000000	0,107986
1019,000000	0,108634
1018,000000	0,109157
1017,000000	0,108755
1016,000000	0,107417
1015,000000	0,106009
1014,000000	0,105320
1013,000000	0,105419
1012,000000	0,105934
1011,000000	0,106503
1010,000000	0,106920
1009,000000	0,107255
1008,000000	0,107930
1007,000000	0,109200
1006,000000	0,110609
1005,000000	0,111411
1004,000000	0,111442
1003,000000	0,111249
1002,000000	0,111334
1001,000000	0,111542
1000,000000	0,111457
999,000000	0,111053
998,000000	0,110613
997,000000	0,110329
996,000000	0,110176
995,000000	0,109920
994,000000	0,109173
993,000000	0,107787
992,000000	0,106483
991,000000	0,106445
990,000000	0,107802
989,000000	0,109268
988,000000	0,109625
987,000000	0,109044
986,000000	0,108454
985,000000	0,108135
984,000000	0,107721
983,000000	0,107144
982,000000	0,106824
981,000000	0,107024
980,000000	0,107637
979,000000	0,108467
978,000000	0,109226
977,000000	0,109325
976,000000	0,108351
975,000000	0,106779
974,000000	0,105575
973,000000	0,105110
972,000000	0,104954
971,000000	0,104619
970,000000	0,103902
969,000000	0,102751
968,000000	0,101445
967,000000	0,100742
966,000000	0,101200
965,000000	0,102285
964,000000	0,102916
963,000000	0,102986
962,000000	0,103380
961,000000	0,104188
960,000000	0,104155
959,000000	0,102617
958,000000	0,100956
957,000000	0,100893
956,000000	0,102034
955,000000	0,102440
954,000000	0,101317
953,000000	0,099813
952,000000	0,098978
951,000000	0,098348
950,000000	0,097061
949,000000	0,095369
948,000000	0,094253
947,000000	0,094056
946,000000	0,094375
945,000000	0,094927
944,000000	0,095637
943,000000	0,096105
942,000000	0,095863
941,000000	0,095065
940,000000	0,094404
939,000000	0,094230
938,000000	0,094251
937,000000	0,094256
936,000000	0,094518
935,000000	0,095153
934,000000	0,095566
933,000000	0,095017
932,000000	0,093541
931,000000	0,091897
930,000000	0,090668
929,000000	0,089837
928,000000	0,089255
927,000000	0,089058
926,000000	0,089450
925,000000	0,090274
924,000000	0,091034
923,000000	0,091332
922,000000	0,091069
921,000000	0,090321
920,000000	0,089236
919,000000	0,088109
918,000000	0,087384
917,000000	0,087328
916,000000	0,087696
915,000000	0,087913
914,000000	0,087616
913,000000	0,086963
912,000000	0,086357
911,000000	0,085934
910,000000	0,085640
909,000000	0,085544
908,000000	0,085664
907,000000	0,085608
906,000000	0,084860
905,000000	0,083622
904,000000	0,082915
903,000000	0,083468
902,000000	0,084605
901,000000	0,084796
900,000000	0,083469
899,000000	0,081547
898,000000	0,080355
897,000000	0,080317
896,000000	0,080796
895,000000	0,081110
894,000000	0,081154
893,000000	0,081002
892,000000	0,080521
891,000000	0,079613
890,000000	0,078644
889,000000	0,078224
888,000000	0,078431
887,000000	0,078734
886,000000	0,078582
885,000000	0,077837
884,000000	0,076700
883,000000	0,075425
882,000000	0,074334
881,000000	0,073832
880,000000	0,074029
879,000000	0,074447
878,000000	0,074469
877,000000	0,074049
876,000000	0,073681
875,000000	0,073724
874,000000	0,074006
873,000000	0,074082
872,000000	0,073678
871,000000	0,072868
870,000000	0,072068
869,000000	0,071802
868,000000	0,072306
867,000000	0,073220
866,000000	0,073801
865,000000	0,073777
864,000000	0,073622
863,000000	0,073794
862,000000	0,074132
861,000000	0,074084
860,000000	0,073344
859,000000	0,072210
858,000000	0,071412
857,000000	0,071552
856,000000	0,072431
855,000000	0,073048
854,000000	0,072561
853,000000	0,071206
852,000000	0,069965
851,000000	0,069350
850,000000	0,068935
849,000000	0,068226
848,000000	0,067530
847,000000	0,067541
846,000000	0,068399
845,000000	0,069568
844,000000	0,070443
843,000000	0,070815
842,000000	0,070819
841,000000	0,070717
840,000000	0,070660
839,000000	0,070542
838,000000	0,070193
837,000000	0,069628
836,000000	0,068944
835,000000	0,067995
834,000000	0,066647
833,000000	0,065420
832,000000	0,065261
831,000000	0,066281
830,000000	0,067332
829,000000	0,067254
828,000000	0,065958
827,000000	0,064180
826,000000	0,062651
825,000000	0,061779
824,000000	0,061799
823,000000	0,062610
822,000000	0,063607
821,000000	0,064193
820,000000	0,064407
819,000000	0,064651
818,000000	0,065029
817,000000	0,065396
816,000000	0,065745
815,000000	0,066156
814,000000	0,066453
813,000000	0,066270
812,000000	0,065478
811,000000	0,064372
810,000000	0,063530
809,000000	0,063512
808,000000	0,064287
807,000000	0,064950
806,000000	0,064547
805,000000	0,063304
804,000000	0,062519
803,000000	0,062841
802,000000	0,063294
801,000000	0,062681
800,000000	0,061306
799,000000	0,060559
798,000000	0,061060
797,000000	0,061983
796,000000	0,062414
795,000000	0,062372
794,000000	0,062247
793,000000	0,062161
792,000000	0,062136
791,000000	0,062277
790,000000	0,062490
789,000000	0,062497
788,000000	0,062341
787,000000	0,062424
786,000000	0,062888
785,000000	0,063339
784,000000	0,063473
783,000000	0,063536
782,000000	0,063891
781,000000	0,064438
780,000000	0,064720
779,000000	0,064435
778,000000	0,063723
777,000000	0,063022
776,000000	0,062764
775,000000	0,062996
774,000000	0,063268
773,000000	0,063205
772,000000	0,062992
771,000000	0,062983
770,000000	0,063062
769,000000	0,062894
768,000000	0,062681
767,000000	0,062993
766,000000	0,063776
765,000000	0,064099
764,000000	0,063259
763,000000	0,061698
762,000000	0,060382
761,000000	0,059675
760,000000	0,059240
759,000000	0,058766
758,000000	0,058401
757,000000	0,058479
756,000000	0,059035
755,000000	0,059656
754,000000	0,059825
753,000000	0,059447
752,000000	0,058973
751,000000	0,058847
750,000000	0,058959
749,000000	0,058899
748,000000	0,058691
747,000000	0,058853
746,000000	0,059630
745,000000	0,060583
744,000000	0,061061
743,000000	0,060803
742,000000	0,059977
741,000000	0,058928
740,000000	0,057967
739,000000	0,057278
738,000000	0,056886
737,000000	0,056714
736,000000	0,056711
735,000000	0,056756
734,000000	0,056551
733,000000	0,055932
732,000000	0,055220
731,000000	0,055077
730,000000	0,055706
729,000000	0,056561
728,000000	0,057087
727,000000	0,057127
726,000000	0,056781
725,000000	0,056240
724,000000	0,055721
723,000000	0,055354
722,000000	0,054928
721,000000	0,054028
720,000000	0,052625
719,000000	0,051294
718,000000	0,050630
717,000000	0,050621
716,000000	0,050959
715,000000	0,051605
714,000000	0,052516
713,000000	0,053225
712,000000	0,053176
711,000000	0,052540
710,000000	0,052243
709,000000	0,052932
708,000000	0,054159
707,000000	0,054811
706,000000	0,054313
705,000000	0,053173
704,000000	0,052227
703,000000	0,051759
702,000000	0,051484
701,000000	0,051124
700,000000	0,050702
699,000000	0,050306
698,000000	0,049861
697,000000	0,049229
696,000000	0,048424
695,000000	0,047671
694,000000	0,047245
693,000000	0,047255
692,000000	0,047410
691,000000	0,047063
690,000000	0,045791
689,000000	0,043880
688,000000	0,042031
687,000000	0,040838
686,000000	0,040578
685,000000	0,041290
684,000000	0,042725
683,000000	0,044155
682,000000	0,044725
681,000000	0,044221
680,000000	0,043080
679,000000	0,041758
678,000000	0,040633
677,000000	0,040214
676,000000	0,040716
675,000000	0,041470
674,000000	0,041602
673,000000	0,041322
672,000000	0,041182
671,000000	0,039951
670,000000	0,035501
669,000000	0,028756
668,000000	0,024746
667,000000	0,027497
666,000000	0,034861
665,000000	0,040845
664,000000	0,042314
663,000000	0,041209
662,000000	0,040455
661,000000	0,040374
660,000000	0,040135
659,000000	0,040014
658,000000	0,040537
657,000000	0,041010
656,000000	0,040467
655,000000	0,039255
654,000000	0,038457
653,000000	0,038243
652,000000	0,037932
651,000000	0,037306
650,000000	0,036839
649,000000	0,036841
648,000000	0,037102
647,000000	0,037247
646,000000	0,036982
645,000000	0,036292
644,000000	0,035747
643,000000	0,036121
642,000000	0,037262
641,000000	0,037972
640,000000	0,037485
639,000000	0,036469
638,000000	0,035933
637,000000	0,035812
636,000000	0,035439
635,000000	0,034820
634,000000	0,034556
633,000000	0,034824
632,000000	0,035281
631,000000	0,035721
630,000000	0,036134
629,000000	0,036248
628,000000	0,035935
627,000000	0,035858
626,000000	0,036687
625,000000	0,037827
624,000000	0,037909
623,000000	0,036655
622,000000	0,035232
621,000000	0,034643
620,000000	0,034596
619,000000	0,034341
618,000000	0,033866
617,000000	0,033626
616,000000	0,033652
615,000000	0,033519
614,000000	0,032934
613,000000	0,031936
612,000000	0,030737
611,000000	0,029673
610,000000	0,029154
609,000000	0,029338
608,000000	0,029983
607,000000	0,030576
606,000000	0,030757
605,000000	0,030745
604,000000	0,030692
603,000000	0,030592
602,000000	0,030573
601,000000	0,030374
600,000000	0,029599
599,000000	0,028323
598,000000	0,027235
597,000000	0,027083
596,000000	0,027928
595,000000	0,029027
594,000000	0,029418
593,000000	0,028829
592,000000	0,027975
591,000000	0,027699
590,000000	0,027855
589,000000	0,027608
588,000000	0,026745
587,000000	0,026156
586,000000	0,026626
585,000000	0,027698
584,000000	0,028324
583,000000	0,028174
582,000000	0,027677
581,000000	0,027037
580,000000	0,026049
579,000000	0,024904
578,000000	0,024345
577,000000	0,024702
576,000000	0,025420
575,000000	0,025712
574,000000	0,025392
573,000000	0,024937
572,000000	0,024814
571,000000	0,024989
570,000000	0,025029
569,000000	0,024495
568,000000	0,023376
567,000000	0,022294
566,000000	0,021968
565,000000	0,022407
564,000000	0,022826
563,000000	0,022525
562,000000	0,021660
561,000000	0,020982
560,000000	0,021033
559,000000	0,021734
558,000000	0,022604
557,000000	0,023130
556,000000	0,022978
555,000000	0,022280
554,000000	0,021729
553,000000	0,021859
552,000000	0,022319
551,000000	0,022439
550,000000	0,022124
549,000000	0,021847
548,000000	0,021919
547,000000	0,021915
546,000000	0,021298
545,000000	0,020147
544,000000	0,019089
543,000000	0,019112
542,000000	0,020124
541,000000	0,020894
540,000000	0,020761
539,000000	0,019731
538,000000	0,018479
537,000000	0,017967
536,000000	0,018391
535,000000	0,019301
534,000000	0,020135
533,000000	0,020529
532,000000	0,020511
531,000000	0,020251
530,000000	0,019745
529,000000	0,019101
528,000000	0,018407
527,000000	0,017687
526,000000	0,017226
525,000000	0,017242
524,000000	0,017566
523,000000	0,017870
522,000000	0,017954
521,000000	0,017766
520,000000	0,017269
519,000000	0,016502
518,000000	0,015777
517,000000	0,015501
516,000000	0,015836
515,000000	0,016553
514,000000	0,017199
513,000000	0,017627
512,000000	0,018284
511,000000	0,019196
510,000000	0,019727
509,000000	0,019356
508,000000	0,018208
507,000000	0,017110
506,000000	0,016657
505,000000	0,016525
504,000000	0,016084
503,000000	0,015344
502,000000	0,014845
501,000000	0,014728
500,000000	0,014590
499,000000	0,014356
498,000000	0,014499
497,000000	0,015332
496,000000	0,016501
495,000000	0,017284
494,000000	0,017299
493,000000	0,016668
492,000000	0,015667
491,000000	0,014672
490,000000	0,014081
489,000000	0,013764
488,000000	0,013111
487,000000	0,011918
486,000000	0,010925
485,000000	0,011092
484,000000	0,012375
483,000000	0,013718
482,000000	0,014317
481,000000	0,014391
480,000000	0,014462
479,000000	0,014385
478,000000	0,013633
477,000000	0,012292
476,000000	0,011050
475,000000	0,010359
474,000000	0,010238
473,000000	0,010619
472,000000	0,011426
471,000000	0,012360
470,000000	0,012997
469,000000	0,013052
468,000000	0,012483
467,000000	0,011603
466,000000	0,010860
465,000000	0,010460
464,000000	0,010291
463,000000	0,010163
462,000000	0,010270
461,000000	0,011030
460,000000	0,012388
459,000000	0,013335
458,000000	0,012730
457,000000	0,010817
456,000000	0,009190
455,000000	0,008982
454,000000	0,009761
453,000000	0,010356
452,000000	0,010139
451,000000	0,009449
450,000000	0,008853
449,000000	0,008456
448,000000	0,008136
447,000000	0,008019
446,000000	0,008491
445,000000	0,009703
444,000000	0,011050
443,000000	0,011568
442,000000	0,010818
441,000000	0,009025
440,000000	0,006827
439,000000	0,005578
438,000000	0,006126
437,000000	0,007732
436,000000	0,009848
435,000000	0,010001
434,000000	0,006895
433,000000	0,004467
432,000000	0,005352
431,000000	0,005363
430,000000	0,004903
429,000000	0,003684
428,000000	0,004509
427,000000	0,009389
426,000000	0,011315
425,000000	0,008316
424,000000	0,004175
423,000000	0,002870
422,000000	0,002968
421,000000	0,006234
420,000000	0,008365
419,000000	0,007323
418,000000	0,004791
417,000000	0,004680
416,000000	0,004802
415,000000	0,003907
414,000000	0,003750
413,000000	0,003462
412,000000	0,004023
411,000000	0,006068
410,000000	0,007143
409,000000	0,006355
408,000000	0,004772
407,000000	0,003465
406,000000	0,002306
405,000000	0,001882
404,000000	0,003852
403,000000	0,006196
402,000000	0,006792
401,000000	0,005034
400,000000	0,003166
399,000000	0,003477
398,000000	0,002825
397,000000	0,001170
396,000000	0,002917
395,000000	0,005068
394,000000	0,006133
393,000000	0,005717
392,000000	0,004939
391,000000	0,004468
390,000000	0,002763
389,000000	0,001186
388,000000	0,002961
387,000000	0,003649
386,000000	0,002865
385,000000	0,001056
384,000000	0,000993
383,000000	0,001370
382,000000	0,001211
381,000000	0,002384
380,000000	0,002900
379,000000	0,002375
378,000000	0,001554
377,000000	0,001199
376,000000	0,000550
375,000000	0,001152
374,000000	0,002377
373,000000	0,001792
372,000000	0,001298
371,000000	0,002873
370,000000	0,001773
369,000000	0,001108
368,000000	0,003642
367,000000	0,003922
366,000000	0,002883
365,000000	0,003305
364,000000	0,003179
363,000000	0,000531
362,000000	0,002862
361,000000	0,003817
360,000000	0,001876
359,000000	0,001163
358,000000	0,002649
357,000000	0,001557
356,000000	0,002524
355,000000	0,004521
354,000000	0,004128
353,000000	0,001762
352,000000	0,000725
351,000000	0,001534
350,000000	0,001037
349,000000	0,000233
348,000000	0,001207
347,000000	0,002534
346,000000	0,002769
345,000000	0,001794
344,000000	0,001251
343,000000	0,001808
342,000000	0,001721
341,000000	0,000534
340,000000	0,001894
339,000000	0,002719
338,000000	0,002251
337,000000	0,003267
336,000000	0,005322
335,000000	0,005870
334,000000	0,004383
333,000000	0,001983
332,000000	0,000387
331,000000	0,002613
330,000000	0,003270
329,000000	0,003228
328,000000	0,003569
327,000000	0,003586
326,000000	0,001843
325,000000	0,000808
324,000000	0,001079
323,000000	0,000747
322,000000	0,003100
321,000000	0,004789
320,000000	0,005439
319,000000	0,005028
318,000000	0,003686
317,000000	0,002980
316,000000	0,003081
315,000000	0,001962
314,000000	0,002288
313,000000	0,003477
312,000000	0,002577
311,000000	0,001135
310,000000	0,002095
309,000000	0,001657
308,000000	0,001876
307,000000	0,001914
306,000000	0,000856
305,000000	0,002465
304,000000	0,001896
303,000000	0,002163
302,000000	0,003375
301,000000	0,003087
300,000000	0,002466
299,000000	0,001755
298,000000	0,002234
297,000000	0,002710
296,000000	0,002244
295,000000	0,001019
294,000000	0,002210
293,000000	0,003763
292,000000	0,003941
291,000000	0,003050
290,000000	0,001985
289,000000	0,001256
288,000000	0,000810
287,000000	0,000871
286,000000	0,001473
285,000000	0,002061
284,000000	0,002391
283,000000	0,002200
282,000000	0,001355
281,000000	0,001317
280,000000	0,002089
279,000000	0,001726
278,000000	0,001872
277,000000	0,002935
276,000000	0,002672
275,000000	0,001111
274,000000	0,000477
273,000000	0,001702
272,000000	0,002908
271,000000	0,003476
270,000000	0,002905
269,000000	0,002400
268,000000	0,002252
267,000000	0,001754
266,000000	0,001732
265,000000	0,003201
264,000000	0,004877
263,000000	0,005246
262,000000	0,003714
261,000000	0,001213
260,000000	0,001144
259,000000	0,002541
258,000000	0,002257
257,000000	0,000845
256,000000	0,003287
255,000000	0,004627
254,000000	0,003528
253,000000	0,002704
252,000000	0,003451
251,000000	0,003035
250,000000	0,001449
249,000000	0,000731
248,000000	0,001922
247,000000	0,000385
246,000000	0,002209
245,000000	0,004596
244,000000	0,005287
243,000000	0,004262
242,000000	0,002260
241,000000	0,000736
240,000000	0,000376
239,000000	0,001169
238,000000	0,002703
237,000000	0,002239
236,000000	0,000979
235,000000	0,001714
234,000000	0,000550
233,000000	0,002704
232,000000	0,004448
231,000000	0,003550
230,000000	0,000971
229,000000	0,002513
228,000000	0,003911
227,000000	0,003642
226,000000	0,003139
225,000000	0,004642
224,000000	0,006015
223,000000	0,004971
222,000000	0,001549
221,000000	0,001237
220,000000	0,002098
219,000000	0,001175
218,000000	0,001631
217,000000	0,002192
216,000000	0,001528
215,000000	0,000368
214,000000	0,000706
213,000000	0,001048
212,000000	0,000779
211,000000	0,000291
210,000000	0,001638
209,000000	0,003152
208,000000	0,003833
207,000000	0,002960
206,000000	0,000788
205,000000	0,001179
204,000000	0,002520
203,000000	0,002559
202,000000	0,001476
201,000000	0,000237
200,000000	0,001205
