PE IR       SUBTECH     SPECTRUM    ASCII       PEDS        4.00        
   -1
ZnO on front of Si transmittance try 2.ASC
25/04/22
10:15:17.00
25/04/22
10:15:17.00
Praktikum
Sample 023 By Praktikum date Dienstag, April 22 2025
200,000000
#HDR
-1
-1
#GR
cm-1
EGY
1.0
0.0
4000,000000
-1,000000
3801
8
0,256952
0,000299
#DATA
4000,000000	0,176492
3999,000000	0,176368
3998,000000	0,176477
3997,000000	0,176314
3996,000000	0,175537
3995,000000	0,174639
3994,000000	0,174444
3993,000000	0,175118
3992,000000	0,176045
3991,000000	0,176664
3990,000000	0,177109
3989,000000	0,177895
3988,000000	0,179209
3987,000000	0,180737
3986,000000	0,181953
3985,000000	0,182367
3984,000000	0,181717
3983,000000	0,180215
3982,000000	0,178508
3981,000000	0,177210
3980,000000	0,176463
3979,000000	0,176025
3978,000000	0,175722
3977,000000	0,175557
3976,000000	0,175486
3975,000000	0,175472
3974,000000	0,175736
3973,000000	0,176619
3972,000000	0,177956
3971,000000	0,178887
3970,000000	0,178681
3969,000000	0,177644
3968,000000	0,176973
3967,000000	0,177550
3966,000000	0,179054
3965,000000	0,180413
3964,000000	0,180909
3963,000000	0,180643
3962,000000	0,180032
3961,000000	0,179178
3960,000000	0,178012
3959,000000	0,176868
3958,000000	0,176482
3957,000000	0,177148
3956,000000	0,178150
3955,000000	0,178435
3954,000000	0,177838
3953,000000	0,177322
3952,000000	0,177767
3951,000000	0,178724
3950,000000	0,178779
3949,000000	0,177192
3948,000000	0,174824
3947,000000	0,173279
3946,000000	0,173370
3945,000000	0,174576
3944,000000	0,175831
3943,000000	0,176565
3942,000000	0,176866
3941,000000	0,177047
3940,000000	0,177369
3939,000000	0,178069
3938,000000	0,179308
3937,000000	0,180850
3936,000000	0,181952
3935,000000	0,181839
3934,000000	0,180352
3933,000000	0,178086
3932,000000	0,175916
3931,000000	0,174449
3930,000000	0,173807
3929,000000	0,173774
3928,000000	0,174051
3927,000000	0,174411
3926,000000	0,174742
3925,000000	0,174954
3924,000000	0,174964
3923,000000	0,174810
3922,000000	0,174658
3921,000000	0,174617
3920,000000	0,174579
3919,000000	0,174422
3918,000000	0,174300
3917,000000	0,174598
3916,000000	0,175509
3915,000000	0,176789
3914,000000	0,177998
3913,000000	0,178787
3912,000000	0,178904
3911,000000	0,178274
3910,000000	0,177236
3909,000000	0,176425
3908,000000	0,176016
3907,000000	0,175216
3906,000000	0,172930
3905,000000	0,169051
3904,000000	0,164847
3903,000000	0,161925
3902,000000	0,160854
3901,000000	0,160911
3900,000000	0,161035
3899,000000	0,160996
3898,000000	0,161760
3897,000000	0,164698
3896,000000	0,170115
3895,000000	0,176339
3894,000000	0,180366
3893,000000	0,180073
3892,000000	0,176095
3891,000000	0,171579
3890,000000	0,169772
3889,000000	0,171168
3888,000000	0,173102
3887,000000	0,172421
3886,000000	0,168762
3885,000000	0,164975
3884,000000	0,164132
3883,000000	0,166491
3882,000000	0,169564
3881,000000	0,170972
3880,000000	0,170681
3879,000000	0,170307
3878,000000	0,170916
3877,000000	0,171969
3876,000000	0,172252
3875,000000	0,171410
3874,000000	0,170196
3873,000000	0,169218
3872,000000	0,167693
3871,000000	0,164177
3870,000000	0,159041
3869,000000	0,155323
3868,000000	0,155962
3867,000000	0,160343
3866,000000	0,164719
3865,000000	0,166259
3864,000000	0,165867
3863,000000	0,166310
3862,000000	0,168675
3861,000000	0,171817
3860,000000	0,174455
3859,000000	0,176321
3858,000000	0,177071
3857,000000	0,175089
3856,000000	0,168363
3855,000000	0,156552
3854,000000	0,142397
3853,000000	0,131191
3852,000000	0,128144
3851,000000	0,134904
3850,000000	0,148153
3849,000000	0,162064
3848,000000	0,172426
3847,000000	0,178383
3846,000000	0,180718
3845,000000	0,179960
3844,000000	0,176760
3843,000000	0,172818
3842,000000	0,170023
3841,000000	0,168636
3840,000000	0,167076
3839,000000	0,163790
3838,000000	0,159101
3837,000000	0,155077
3836,000000	0,153934
3835,000000	0,156266
3834,000000	0,160583
3833,000000	0,164553
3832,000000	0,167099
3831,000000	0,169189
3830,000000	0,172362
3829,000000	0,176574
3828,000000	0,179903
3827,000000	0,180684
3826,000000	0,179417
3825,000000	0,177975
3824,000000	0,176950
3823,000000	0,174637
3822,000000	0,169306
3821,000000	0,162217
3820,000000	0,157404
3819,000000	0,157506
3818,000000	0,160581
3817,000000	0,162198
3816,000000	0,160691
3815,000000	0,159288
3814,000000	0,162273
3813,000000	0,170025
3812,000000	0,178727
3811,000000	0,184396
3810,000000	0,185785
3809,000000	0,183475
3808,000000	0,178238
3807,000000	0,171513
3806,000000	0,166237
3805,000000	0,164855
3804,000000	0,166202
3803,000000	0,166080
3802,000000	0,162070
3801,000000	0,157031
3800,000000	0,156224
3799,000000	0,161355
3798,000000	0,168742
3797,000000	0,173726
3796,000000	0,175590
3795,000000	0,177116
3794,000000	0,180364
3793,000000	0,184372
3792,000000	0,187011
3791,000000	0,187622
3790,000000	0,187197
3789,000000	0,186760
3788,000000	0,186509
3787,000000	0,186197
3786,000000	0,185679
3785,000000	0,185078
3784,000000	0,184701
3783,000000	0,184745
3782,000000	0,184811
3781,000000	0,183906
3780,000000	0,181480
3779,000000	0,178469
3778,000000	0,176865
3777,000000	0,178021
3776,000000	0,181312
3775,000000	0,184618
3774,000000	0,186127
3773,000000	0,185500
3772,000000	0,183595
3771,000000	0,181468
3770,000000	0,179638
3769,000000	0,178138
3768,000000	0,176930
3767,000000	0,176164
3766,000000	0,176177
3765,000000	0,177342
3764,000000	0,179631
3763,000000	0,182172
3762,000000	0,183460
3761,000000	0,182427
3760,000000	0,179357
3759,000000	0,175739
3758,000000	0,173222
3757,000000	0,172643
3756,000000	0,173590
3755,000000	0,174389
3754,000000	0,172842
3753,000000	0,167720
3752,000000	0,159902
3751,000000	0,152017
3750,000000	0,146917
3749,000000	0,146195
3748,000000	0,149249
3747,000000	0,153068
3746,000000	0,153485
3745,000000	0,148560
3744,000000	0,141550
3743,000000	0,139230
3742,000000	0,145719
3741,000000	0,158358
3740,000000	0,170011
3739,000000	0,175026
3738,000000	0,172662
3737,000000	0,165651
3736,000000	0,157359
3735,000000	0,150647
3734,000000	0,147506
3733,000000	0,148425
3732,000000	0,152322
3731,000000	0,157787
3730,000000	0,163993
3729,000000	0,169996
3728,000000	0,174032
3727,000000	0,174693
3726,000000	0,172807
3725,000000	0,171004
3724,000000	0,171091
3723,000000	0,172491
3722,000000	0,173667
3721,000000	0,174373
3720,000000	0,175722
3719,000000	0,178427
3718,000000	0,181921
3717,000000	0,185166
3716,000000	0,187408
3715,000000	0,187737
3714,000000	0,184818
3713,000000	0,178153
3712,000000	0,169637
3711,000000	0,162965
3710,000000	0,161048
3709,000000	0,164007
3708,000000	0,169698
3707,000000	0,175677
3706,000000	0,180414
3705,000000	0,183271
3704,000000	0,183914
3703,000000	0,182257
3702,000000	0,178959
3701,000000	0,175620
3700,000000	0,174090
3699,000000	0,175023
3698,000000	0,177348
3697,000000	0,179543
3696,000000	0,181264
3695,000000	0,183235
3694,000000	0,185471
3693,000000	0,186355
3692,000000	0,183941
3691,000000	0,177956
3690,000000	0,170274
3689,000000	0,163871
3688,000000	0,161420
3687,000000	0,164072
3686,000000	0,170689
3685,000000	0,178493
3684,000000	0,185002
3683,000000	0,189404
3682,000000	0,192020
3681,000000	0,192889
3680,000000	0,191577
3679,000000	0,187845
3678,000000	0,181771
3677,000000	0,173582
3676,000000	0,164445
3675,000000	0,157249
3674,000000	0,154995
3673,000000	0,157681
3672,000000	0,161803
3671,000000	0,163719
3670,000000	0,163280
3669,000000	0,163597
3668,000000	0,167385
3667,000000	0,174393
3666,000000	0,182054
3665,000000	0,187761
3664,000000	0,190522
3663,000000	0,191181
3662,000000	0,191404
3661,000000	0,192264
3660,000000	0,193439
3659,000000	0,193517
3658,000000	0,191238
3657,000000	0,186692
3656,000000	0,181771
3655,000000	0,179185
3654,000000	0,180095
3653,000000	0,182359
3652,000000	0,181758
3651,000000	0,175879
3650,000000	0,166678
3649,000000	0,158786
3648,000000	0,155680
3647,000000	0,158042
3646,000000	0,164890
3645,000000	0,174490
3644,000000	0,184098
3643,000000	0,190522
3642,000000	0,192472
3641,000000	0,191789
3640,000000	0,191372
3639,000000	0,192313
3638,000000	0,193617
3637,000000	0,194129
3636,000000	0,193651
3635,000000	0,192482
3634,000000	0,190932
3633,000000	0,189170
3632,000000	0,186554
3631,000000	0,181345
3630,000000	0,172567
3629,000000	0,162612
3628,000000	0,156758
3627,000000	0,158802
3626,000000	0,167472
3625,000000	0,177807
3624,000000	0,185447
3623,000000	0,188988
3622,000000	0,188990
3621,000000	0,186420
3620,000000	0,182439
3619,000000	0,178721
3618,000000	0,176825
3617,000000	0,177186
3616,000000	0,178795
3615,000000	0,180031
3614,000000	0,179924
3613,000000	0,178883
3612,000000	0,178101
3611,000000	0,178009
3610,000000	0,177663
3609,000000	0,176103
3608,000000	0,174174
3607,000000	0,174274
3606,000000	0,177994
3605,000000	0,184322
3604,000000	0,190272
3603,000000	0,193167
3602,000000	0,192351
3601,000000	0,189388
3600,000000	0,186845
3599,000000	0,186481
3598,000000	0,188035
3597,000000	0,189732
3596,000000	0,190023
3595,000000	0,188889
3594,000000	0,187570
3593,000000	0,187374
3592,000000	0,188738
3591,000000	0,190831
3590,000000	0,191754
3589,000000	0,189721
3588,000000	0,184829
3587,000000	0,179699
3586,000000	0,177796
3585,000000	0,180522
3584,000000	0,186024
3583,000000	0,190873
3582,000000	0,193038
3581,000000	0,193108
3580,000000	0,192908
3579,000000	0,193335
3578,000000	0,193874
3577,000000	0,193892
3576,000000	0,193663
3575,000000	0,193794
3574,000000	0,194203
3573,000000	0,194318
3572,000000	0,193948
3571,000000	0,193188
3570,000000	0,191572
3569,000000	0,188291
3568,000000	0,183666
3567,000000	0,179751
3566,000000	0,178691
3565,000000	0,180738
3564,000000	0,184296
3563,000000	0,187670
3562,000000	0,190291
3561,000000	0,192354
3560,000000	0,193927
3559,000000	0,194823
3558,000000	0,195037
3557,000000	0,194920
3556,000000	0,194911
3555,000000	0,195116
3554,000000	0,195267
3553,000000	0,195166
3552,000000	0,194960
3551,000000	0,194926
3550,000000	0,195060
3549,000000	0,194980
3548,000000	0,194200
3547,000000	0,192457
3546,000000	0,190050
3545,000000	0,188159
3544,000000	0,188449
3543,000000	0,191533
3542,000000	0,195775
3541,000000	0,198447
3540,000000	0,198341
3539,000000	0,196696
3538,000000	0,195385
3537,000000	0,195020
3536,000000	0,195253
3535,000000	0,195916
3534,000000	0,196858
3533,000000	0,197288
3532,000000	0,196493
3531,000000	0,195126
3530,000000	0,194589
3529,000000	0,195062
3528,000000	0,195250
3527,000000	0,194332
3526,000000	0,193141
3525,000000	0,192887
3524,000000	0,193471
3523,000000	0,193915
3522,000000	0,193993
3521,000000	0,194447
3520,000000	0,195678
3519,000000	0,197179
3518,000000	0,198379
3517,000000	0,199468
3516,000000	0,200897
3515,000000	0,202351
3514,000000	0,202834
3513,000000	0,201756
3512,000000	0,199603
3511,000000	0,197428
3510,000000	0,195918
3509,000000	0,195158
3508,000000	0,195019
3507,000000	0,195351
3506,000000	0,195818
3505,000000	0,195947
3504,000000	0,195584
3503,000000	0,195075
3502,000000	0,194882
3501,000000	0,195144
3500,000000	0,195763
3499,000000	0,196645
3498,000000	0,197654
3497,000000	0,198486
3496,000000	0,198876
3495,000000	0,198904
3494,000000	0,198918
3493,000000	0,199204
3492,000000	0,199766
3491,000000	0,200267
3490,000000	0,200163
3489,000000	0,199098
3488,000000	0,197382
3487,000000	0,195882
3486,000000	0,195222
3485,000000	0,195248
3484,000000	0,195432
3483,000000	0,195530
3482,000000	0,195627
3481,000000	0,195742
3480,000000	0,195784
3479,000000	0,195762
3478,000000	0,195752
3477,000000	0,195775
3476,000000	0,195918
3475,000000	0,196358
3474,000000	0,197017
3473,000000	0,197480
3472,000000	0,197580
3471,000000	0,197827
3470,000000	0,198713
3469,000000	0,199845
3468,000000	0,200313
3467,000000	0,199798
3466,000000	0,198729
3465,000000	0,197519
3464,000000	0,196378
3463,000000	0,195864
3462,000000	0,196693
3461,000000	0,198608
3460,000000	0,200163
3459,000000	0,200231
3458,000000	0,199272
3457,000000	0,198572
3456,000000	0,198642
3455,000000	0,198974
3454,000000	0,199125
3453,000000	0,199286
3452,000000	0,199737
3451,000000	0,200326
3450,000000	0,200762
3449,000000	0,201057
3448,000000	0,201382
3447,000000	0,201619
3446,000000	0,201397
3445,000000	0,200650
3444,000000	0,199947
3443,000000	0,200023
3442,000000	0,200926
3441,000000	0,201793
3440,000000	0,201710
3439,000000	0,200755
3438,000000	0,200002
3437,000000	0,200487
3436,000000	0,202271
3435,000000	0,204373
3434,000000	0,205470
3433,000000	0,204841
3432,000000	0,203000
3431,000000	0,201375
3430,000000	0,201037
3429,000000	0,201798
3428,000000	0,202752
3427,000000	0,203442
3426,000000	0,203989
3425,000000	0,204237
3424,000000	0,203623
3423,000000	0,202167
3422,000000	0,200739
3421,000000	0,199961
3420,000000	0,199535
3419,000000	0,199163
3418,000000	0,199413
3417,000000	0,200809
3416,000000	0,202577
3415,000000	0,203314
3414,000000	0,202835
3413,000000	0,202342
3412,000000	0,202612
3411,000000	0,203032
3410,000000	0,202787
3409,000000	0,202202
3408,000000	0,202242
3407,000000	0,203155
3406,000000	0,204267
3405,000000	0,204999
3404,000000	0,205466
3403,000000	0,206018
3402,000000	0,206670
3401,000000	0,207085
3400,000000	0,206976
3399,000000	0,206390
3398,000000	0,205698
3397,000000	0,205331
3396,000000	0,205510
3395,000000	0,206185
3394,000000	0,207187
3393,000000	0,208363
3392,000000	0,209457
3391,000000	0,210065
3390,000000	0,209906
3389,000000	0,209057
3388,000000	0,207879
3387,000000	0,206745
3386,000000	0,205845
3385,000000	0,205226
3384,000000	0,204845
3383,000000	0,204553
3382,000000	0,204279
3381,000000	0,204318
3380,000000	0,205261
3379,000000	0,207338
3378,000000	0,209701
3377,000000	0,210777
3376,000000	0,209757
3375,000000	0,207672
3374,000000	0,206590
3373,000000	0,207585
3372,000000	0,209750
3371,000000	0,211376
3370,000000	0,211736
3369,000000	0,211422
3368,000000	0,211268
3367,000000	0,211448
3366,000000	0,211550
3365,000000	0,211157
3364,000000	0,210196
3363,000000	0,208978
3362,000000	0,208053
3361,000000	0,207799
3360,000000	0,208120
3359,000000	0,208620
3358,000000	0,209045
3357,000000	0,209404
3356,000000	0,209695
3355,000000	0,209866
3354,000000	0,209999
3353,000000	0,210264
3352,000000	0,210658
3351,000000	0,211018
3350,000000	0,211392
3349,000000	0,211955
3348,000000	0,212438
3347,000000	0,212095
3346,000000	0,210602
3345,000000	0,208825
3344,000000	0,208121
3343,000000	0,208949
3342,000000	0,210489
3341,000000	0,211623
3340,000000	0,211961
3339,000000	0,211768
3338,000000	0,211290
3337,000000	0,210579
3336,000000	0,209864
3335,000000	0,209629
3334,000000	0,210093
3333,000000	0,210799
3332,000000	0,211044
3331,000000	0,210680
3330,000000	0,210225
3329,000000	0,210054
3328,000000	0,209832
3327,000000	0,209129
3326,000000	0,208423
3325,000000	0,208867
3324,000000	0,210780
3323,000000	0,212833
3322,000000	0,213239
3321,000000	0,211726
3320,000000	0,209948
3319,000000	0,209731
3318,000000	0,211168
3317,000000	0,212663
3316,000000	0,212758
3315,000000	0,211625
3314,000000	0,210625
3313,000000	0,210641
3312,000000	0,211241
3311,000000	0,211534
3310,000000	0,211370
3309,000000	0,211227
3308,000000	0,211294
3307,000000	0,211338
3306,000000	0,211418
3305,000000	0,211965
3304,000000	0,212842
3303,000000	0,213048
3302,000000	0,211987
3301,000000	0,210573
3300,000000	0,210312
3299,000000	0,211560
3298,000000	0,213299
3297,000000	0,214487
3296,000000	0,214885
3295,000000	0,214455
3294,000000	0,213041
3293,000000	0,211104
3292,000000	0,210059
3291,000000	0,211093
3290,000000	0,213753
3289,000000	0,216354
3288,000000	0,217679
3287,000000	0,217813
3286,000000	0,217386
3285,000000	0,216665
3284,000000	0,215758
3283,000000	0,215119
3282,000000	0,215211
3281,000000	0,215758
3280,000000	0,215868
3279,000000	0,215080
3278,000000	0,214004
3277,000000	0,213648
3276,000000	0,214350
3275,000000	0,215600
3274,000000	0,216705
3273,000000	0,217311
3272,000000	0,217373
3271,000000	0,217049
3270,000000	0,216767
3269,000000	0,216993
3268,000000	0,217651
3267,000000	0,218116
3266,000000	0,218040
3265,000000	0,217819
3264,000000	0,217884
3263,000000	0,217873
3262,000000	0,217169
3261,000000	0,216111
3260,000000	0,215843
3259,000000	0,216730
3258,000000	0,217608
3257,000000	0,217147
3256,000000	0,215556
3255,000000	0,214294
3254,000000	0,214282
3253,000000	0,214965
3252,000000	0,215217
3251,000000	0,214646
3250,000000	0,213852
3249,000000	0,213755
3248,000000	0,214872
3247,000000	0,216953
3246,000000	0,218935
3245,000000	0,219548
3244,000000	0,218489
3243,000000	0,216978
3242,000000	0,216612
3241,000000	0,217560
3240,000000	0,218339
3239,000000	0,217699
3238,000000	0,216209
3237,000000	0,215389
3236,000000	0,215769
3235,000000	0,216545
3234,000000	0,217023
3233,000000	0,217393
3232,000000	0,217843
3231,000000	0,217821
3230,000000	0,216811
3229,000000	0,215352
3228,000000	0,214604
3227,000000	0,215218
3226,000000	0,216984
3225,000000	0,219200
3224,000000	0,220844
3223,000000	0,220879
3222,000000	0,219225
3221,000000	0,217241
3220,000000	0,216498
3219,000000	0,217119
3218,000000	0,217891
3217,000000	0,217912
3216,000000	0,217353
3215,000000	0,216689
3214,000000	0,216017
3213,000000	0,215393
3212,000000	0,215106
3211,000000	0,215235
3210,000000	0,215459
3209,000000	0,215606
3208,000000	0,215920
3207,000000	0,216574
3206,000000	0,217324
3205,000000	0,217920
3204,000000	0,218393
3203,000000	0,218756
3202,000000	0,218873
3201,000000	0,218864
3200,000000	0,219143
3199,000000	0,219739
3198,000000	0,220099
3197,000000	0,219875
3196,000000	0,219455
3195,000000	0,219420
3194,000000	0,219885
3193,000000	0,220675
3192,000000	0,221585
3191,000000	0,222081
3190,000000	0,221436
3189,000000	0,219723
3188,000000	0,218195
3187,000000	0,217987
3186,000000	0,218839
3185,000000	0,219697
3184,000000	0,220180
3183,000000	0,220651
3182,000000	0,221166
3181,000000	0,221267
3180,000000	0,220870
3179,000000	0,220523
3178,000000	0,220559
3177,000000	0,220599
3176,000000	0,220200
3175,000000	0,219600
3174,000000	0,219484
3173,000000	0,220182
3172,000000	0,221237
3171,000000	0,221765
3170,000000	0,221215
3169,000000	0,219940
3168,000000	0,218951
3167,000000	0,219045
3166,000000	0,220357
3165,000000	0,222527
3164,000000	0,224873
3163,000000	0,226236
3162,000000	0,225507
3161,000000	0,222889
3160,000000	0,220186
3159,000000	0,219165
3158,000000	0,219805
3157,000000	0,220784
3156,000000	0,221207
3155,000000	0,221205
3154,000000	0,221133
3153,000000	0,221168
3152,000000	0,221657
3151,000000	0,222905
3150,000000	0,224395
3149,000000	0,225028
3148,000000	0,224393
3147,000000	0,223247
3146,000000	0,222403
3145,000000	0,221779
3144,000000	0,220918
3143,000000	0,219982
3142,000000	0,219758
3141,000000	0,220775
3140,000000	0,222688
3139,000000	0,224435
3138,000000	0,224987
3137,000000	0,224212
3136,000000	0,223052
3135,000000	0,222583
3134,000000	0,222926
3133,000000	0,223307
3132,000000	0,223066
3131,000000	0,222200
3130,000000	0,221090
3129,000000	0,220203
3128,000000	0,220056
3127,000000	0,220816
3126,000000	0,221844
3125,000000	0,222168
3124,000000	0,221615
3123,000000	0,220987
3122,000000	0,220989
3121,000000	0,221445
3120,000000	0,221741
3119,000000	0,221494
3118,000000	0,220631
3117,000000	0,219377
3116,000000	0,218432
3115,000000	0,218616
3114,000000	0,219893
3113,000000	0,221233
3112,000000	0,221817
3111,000000	0,221933
3110,000000	0,222370
3109,000000	0,223332
3108,000000	0,224371
3107,000000	0,225021
3106,000000	0,225002
3105,000000	0,224232
3104,000000	0,223168
3103,000000	0,222822
3102,000000	0,223793
3101,000000	0,225379
3100,000000	0,226269
3099,000000	0,226047
3098,000000	0,225520
3097,000000	0,225536
3096,000000	0,225991
3095,000000	0,226180
3094,000000	0,225653
3093,000000	0,224569
3092,000000	0,223515
3091,000000	0,223144
3090,000000	0,223741
3089,000000	0,224957
3088,000000	0,226081
3087,000000	0,226647
3086,000000	0,226598
3085,000000	0,225837
3084,000000	0,224152
3083,000000	0,221898
3082,000000	0,220408
3081,000000	0,221024
3080,000000	0,223532
3079,000000	0,226104
3078,000000	0,227064
3077,000000	0,226392
3076,000000	0,225218
3075,000000	0,224316
3074,000000	0,223657
3073,000000	0,223225
3072,000000	0,223360
3071,000000	0,224081
3070,000000	0,224714
3069,000000	0,224622
3068,000000	0,223940
3067,000000	0,223204
3066,000000	0,222649
3065,000000	0,222252
3064,000000	0,222096
3063,000000	0,222224
3062,000000	0,222343
3061,000000	0,222191
3060,000000	0,222078
3059,000000	0,222658
3058,000000	0,224180
3057,000000	0,226180
3056,000000	0,227736
3055,000000	0,227885
3054,000000	0,226291
3053,000000	0,223921
3052,000000	0,222605
3051,000000	0,223251
3050,000000	0,224766
3049,000000	0,225419
3048,000000	0,225025
3047,000000	0,224915
3046,000000	0,225876
3045,000000	0,227132
3044,000000	0,227534
3043,000000	0,226937
3042,000000	0,225999
3041,000000	0,225296
3040,000000	0,225081
3039,000000	0,225354
3038,000000	0,225770
3037,000000	0,225872
3036,000000	0,225631
3035,000000	0,225411
3034,000000	0,225319
3033,000000	0,225063
3032,000000	0,224619
3031,000000	0,224433
3030,000000	0,224670
3029,000000	0,224822
3028,000000	0,224365
3027,000000	0,223416
3026,000000	0,222490
3025,000000	0,221954
3024,000000	0,221928
3023,000000	0,222347
3022,000000	0,222909
3021,000000	0,223300
3020,000000	0,223603
3019,000000	0,224099
3018,000000	0,224587
3017,000000	0,224450
3016,000000	0,223613
3015,000000	0,222865
3014,000000	0,222992
3013,000000	0,224011
3012,000000	0,225432
3011,000000	0,226690
3010,000000	0,227125
3009,000000	0,226315
3008,000000	0,224866
3007,000000	0,224208
3006,000000	0,225040
3005,000000	0,226444
3004,000000	0,227056
3003,000000	0,226640
3002,000000	0,226014
3001,000000	0,225919
3000,000000	0,226508
2999,000000	0,227538
2998,000000	0,228419
2997,000000	0,228414
2996,000000	0,227376
2995,000000	0,226074
2994,000000	0,225325
2993,000000	0,225175
2992,000000	0,225386
2991,000000	0,226191
2990,000000	0,227800
2989,000000	0,229550
2988,000000	0,230395
2987,000000	0,230092
2986,000000	0,229166
2985,000000	0,227932
2984,000000	0,226412
2983,000000	0,225101
2982,000000	0,224824
2981,000000	0,225595
2980,000000	0,226404
2979,000000	0,226474
2978,000000	0,226096
2977,000000	0,225853
2976,000000	0,225621
2975,000000	0,224873
2974,000000	0,223699
2973,000000	0,222938
2972,000000	0,223314
2971,000000	0,224622
2970,000000	0,225798
2969,000000	0,225772
2968,000000	0,224384
2967,000000	0,222482
2966,000000	0,221043
2965,000000	0,220322
2964,000000	0,220013
2963,000000	0,220027
2962,000000	0,220592
2961,000000	0,221545
2960,000000	0,222052
2959,000000	0,221417
2958,000000	0,219937
2957,000000	0,218638
2956,000000	0,218204
2955,000000	0,218476
2954,000000	0,218961
2953,000000	0,219436
2952,000000	0,219843
2951,000000	0,219889
2950,000000	0,219252
2949,000000	0,218216
2948,000000	0,217597
2947,000000	0,217896
2946,000000	0,218756
2945,000000	0,219491
2944,000000	0,219799
2943,000000	0,219575
2942,000000	0,218481
2941,000000	0,216338
2940,000000	0,213878
2939,000000	0,212349
2938,000000	0,212216
2937,000000	0,212860
2936,000000	0,213652
2935,000000	0,214610
2934,000000	0,215730
2933,000000	0,216393
2932,000000	0,216074
2931,000000	0,215152
2930,000000	0,214417
2929,000000	0,214027
2928,000000	0,213445
2927,000000	0,212273
2926,000000	0,210841
2925,000000	0,210039
2924,000000	0,210581
2923,000000	0,212177
2922,000000	0,213491
2921,000000	0,213418
2920,000000	0,212472
2919,000000	0,212272
2918,000000	0,213552
2917,000000	0,215486
2916,000000	0,217116
2915,000000	0,218505
2914,000000	0,219957
2913,000000	0,221063
2912,000000	0,221448
2911,000000	0,221666
2910,000000	0,222319
2909,000000	0,222793
2908,000000	0,222086
2907,000000	0,220658
2906,000000	0,220230
2905,000000	0,221534
2904,000000	0,223358
2903,000000	0,224089
2902,000000	0,223478
2901,000000	0,222540
2900,000000	0,222245
2899,000000	0,222738
2898,000000	0,223528
2897,000000	0,224072
2896,000000	0,224168
2895,000000	0,223843
2894,000000	0,223108
2893,000000	0,222155
2892,000000	0,221714
2891,000000	0,222533
2890,000000	0,224259
2889,000000	0,225573
2888,000000	0,225933
2887,000000	0,226317
2886,000000	0,227546
2885,000000	0,228726
2884,000000	0,228558
2883,000000	0,227460
2882,000000	0,227005
2881,000000	0,227475
2880,000000	0,227617
2879,000000	0,226819
2878,000000	0,225990
2877,000000	0,225827
2876,000000	0,225638
2875,000000	0,224643
2874,000000	0,223448
2873,000000	0,223247
2872,000000	0,224222
2871,000000	0,225456
2870,000000	0,226123
2869,000000	0,226052
2868,000000	0,225360
2867,000000	0,224149
2866,000000	0,222574
2865,000000	0,220884
2864,000000	0,219398
2863,000000	0,218521
2862,000000	0,218595
2861,000000	0,219543
2860,000000	0,220780
2859,000000	0,221595
2858,000000	0,221567
2857,000000	0,220767
2856,000000	0,219782
2855,000000	0,219405
2854,000000	0,219888
2853,000000	0,220628
2852,000000	0,220962
2851,000000	0,221047
2850,000000	0,221511
2849,000000	0,222452
2848,000000	0,223405
2847,000000	0,224164
2846,000000	0,224969
2845,000000	0,225888
2844,000000	0,226677
2843,000000	0,227296
2842,000000	0,227931
2841,000000	0,228465
2840,000000	0,228538
2839,000000	0,228284
2838,000000	0,228307
2837,000000	0,228827
2836,000000	0,229509
2835,000000	0,230126
2834,000000	0,230663
2833,000000	0,230774
2832,000000	0,230031
2831,000000	0,228851
2830,000000	0,228243
2829,000000	0,228420
2828,000000	0,228523
2827,000000	0,228075
2826,000000	0,227870
2825,000000	0,228815
2824,000000	0,230627
2823,000000	0,232232
2822,000000	0,232899
2821,000000	0,232574
2820,000000	0,231662
2819,000000	0,230905
2818,000000	0,230879
2817,000000	0,231272
2816,000000	0,231231
2815,000000	0,230691
2814,000000	0,230559
2813,000000	0,231214
2812,000000	0,231779
2811,000000	0,231490
2810,000000	0,230877
2809,000000	0,230743
2808,000000	0,230854
2807,000000	0,230676
2806,000000	0,230670
2805,000000	0,231561
2804,000000	0,232794
2803,000000	0,233041
2802,000000	0,232147
2801,000000	0,231364
2800,000000	0,231643
2799,000000	0,232712
2798,000000	0,233943
2797,000000	0,235087
2796,000000	0,235860
2795,000000	0,235673
2794,000000	0,234291
2793,000000	0,232378
2792,000000	0,231019
2791,000000	0,230775
2790,000000	0,231211
2789,000000	0,231209
2788,000000	0,229978
2787,000000	0,228088
2786,000000	0,227267
2785,000000	0,228645
2784,000000	0,231391
2783,000000	0,233557
2782,000000	0,234143
2781,000000	0,233716
2780,000000	0,233210
2779,000000	0,232929
2778,000000	0,232824
2777,000000	0,232891
2776,000000	0,232949
2775,000000	0,232586
2774,000000	0,231735
2773,000000	0,230940
2772,000000	0,230769
2771,000000	0,231231
2770,000000	0,231990
2769,000000	0,232857
2768,000000	0,233817
2767,000000	0,234735
2766,000000	0,235208
2765,000000	0,234801
2764,000000	0,233488
2763,000000	0,231967
2762,000000	0,231298
2761,000000	0,231948
2760,000000	0,233277
2759,000000	0,234209
2758,000000	0,234313
2757,000000	0,233954
2756,000000	0,233627
2755,000000	0,233550
2754,000000	0,233762
2753,000000	0,234139
2752,000000	0,234356
2751,000000	0,234237
2750,000000	0,234098
2749,000000	0,234351
2748,000000	0,234876
2747,000000	0,235191
2746,000000	0,235105
2745,000000	0,234752
2744,000000	0,234166
2743,000000	0,233462
2742,000000	0,233267
2741,000000	0,234183
2740,000000	0,235722
2739,000000	0,236581
2738,000000	0,236232
2737,000000	0,235524
2736,000000	0,235368
2735,000000	0,235557
2734,000000	0,235370
2733,000000	0,234780
2732,000000	0,234438
2731,000000	0,234793
2730,000000	0,235769
2729,000000	0,236976
2728,000000	0,237760
2727,000000	0,237369
2726,000000	0,235725
2725,000000	0,233929
2724,000000	0,233387
2723,000000	0,234391
2722,000000	0,235922
2721,000000	0,236801
2720,000000	0,236656
2719,000000	0,235906
2718,000000	0,235305
2717,000000	0,235541
2716,000000	0,236750
2715,000000	0,238245
2714,000000	0,239032
2713,000000	0,238763
2712,000000	0,237951
2711,000000	0,237179
2710,000000	0,236497
2709,000000	0,235783
2708,000000	0,235277
2707,000000	0,235357
2706,000000	0,235950
2705,000000	0,236597
2704,000000	0,237077
2703,000000	0,237560
2702,000000	0,238052
2701,000000	0,238108
2700,000000	0,237371
2699,000000	0,236170
2698,000000	0,235228
2697,000000	0,234891
2696,000000	0,234969
2695,000000	0,235287
2694,000000	0,235974
2693,000000	0,237025
2692,000000	0,237914
2691,000000	0,237995
2690,000000	0,237244
2689,000000	0,236277
2688,000000	0,235707
2687,000000	0,235752
2686,000000	0,236374
2685,000000	0,237396
2684,000000	0,238380
2683,000000	0,238749
2682,000000	0,238336
2681,000000	0,237726
2680,000000	0,237788
2679,000000	0,238802
2678,000000	0,240103
2677,000000	0,240637
2676,000000	0,239953
2675,000000	0,238681
2674,000000	0,237932
2673,000000	0,238182
2672,000000	0,238857
2671,000000	0,239031
2670,000000	0,238403
2669,000000	0,237541
2668,000000	0,237218
2667,000000	0,237594
2666,000000	0,238018
2665,000000	0,237708
2664,000000	0,236737
2663,000000	0,236215
2662,000000	0,237150
2661,000000	0,239097
2660,000000	0,240399
2659,000000	0,239954
2658,000000	0,238403
2657,000000	0,237272
2656,000000	0,237360
2655,000000	0,238381
2654,000000	0,239716
2653,000000	0,240776
2652,000000	0,240940
2651,000000	0,240084
2650,000000	0,239139
2649,000000	0,239223
2648,000000	0,240031
2647,000000	0,239989
2646,000000	0,238387
2645,000000	0,236525
2644,000000	0,236133
2643,000000	0,237314
2642,000000	0,238780
2641,000000	0,239676
2640,000000	0,240294
2639,000000	0,241089
2638,000000	0,241855
2637,000000	0,242119
2636,000000	0,241854
2635,000000	0,241470
2634,000000	0,241332
2633,000000	0,241401
2632,000000	0,241227
2631,000000	0,240406
2630,000000	0,239128
2629,000000	0,238115
2628,000000	0,237911
2627,000000	0,238450
2626,000000	0,239363
2625,000000	0,240328
2624,000000	0,240934
2623,000000	0,240654
2622,000000	0,239448
2621,000000	0,238129
2620,000000	0,237611
2619,000000	0,238001
2618,000000	0,238806
2617,000000	0,239764
2616,000000	0,240851
2615,000000	0,241766
2614,000000	0,242206
2613,000000	0,242551
2612,000000	0,243421
2611,000000	0,244446
2610,000000	0,244348
2609,000000	0,242657
2608,000000	0,240671
2607,000000	0,240178
2606,000000	0,241635
2605,000000	0,243992
2604,000000	0,245800
2603,000000	0,246054
2602,000000	0,244511
2601,000000	0,241908
2600,000000	0,239670
2599,000000	0,238785
2598,000000	0,238972
2597,000000	0,239302
2596,000000	0,239422
2595,000000	0,239656
2594,000000	0,240109
2593,000000	0,240384
2592,000000	0,240329
2591,000000	0,240494
2590,000000	0,241498
2589,000000	0,243157
2588,000000	0,244516
2587,000000	0,244707
2586,000000	0,243684
2585,000000	0,242215
2584,000000	0,241247
2583,000000	0,241206
2582,000000	0,241829
2581,000000	0,242596
2580,000000	0,243173
2579,000000	0,243415
2578,000000	0,243142
2577,000000	0,242165
2576,000000	0,240599
2575,000000	0,239078
2574,000000	0,238511
2573,000000	0,239348
2572,000000	0,240926
2571,000000	0,241865
2570,000000	0,241531
2569,000000	0,240883
2568,000000	0,241330
2567,000000	0,242805
2566,000000	0,243805
2565,000000	0,243428
2564,000000	0,242487
2563,000000	0,242116
2562,000000	0,242184
2561,000000	0,241938
2560,000000	0,241542
2559,000000	0,241778
2558,000000	0,242561
2557,000000	0,242931
2556,000000	0,242636
2555,000000	0,242540
2554,000000	0,243161
2553,000000	0,243722
2552,000000	0,243224
2551,000000	0,241804
2550,000000	0,240561
2549,000000	0,240413
2548,000000	0,241422
2547,000000	0,242855
2546,000000	0,243669
2545,000000	0,243289
2544,000000	0,242233
2543,000000	0,241644
2542,000000	0,242078
2541,000000	0,243145
2540,000000	0,244328
2539,000000	0,245421
2538,000000	0,246006
2537,000000	0,245408
2536,000000	0,243762
2535,000000	0,242377
2534,000000	0,242307
2533,000000	0,243130
2532,000000	0,243840
2531,000000	0,244294
2530,000000	0,244896
2529,000000	0,245422
2528,000000	0,245306
2527,000000	0,244865
2526,000000	0,245081
2525,000000	0,246033
2524,000000	0,246526
2523,000000	0,245726
2522,000000	0,244324
2521,000000	0,243557
2520,000000	0,243647
2519,000000	0,243864
2518,000000	0,243789
2517,000000	0,243820
2516,000000	0,244443
2515,000000	0,245460
2514,000000	0,246106
2513,000000	0,245801
2512,000000	0,244796
2511,000000	0,244080
2510,000000	0,244424
2509,000000	0,245472
2508,000000	0,246120
2507,000000	0,245889
2506,000000	0,245562
2505,000000	0,246180
2504,000000	0,247660
2503,000000	0,248893
2502,000000	0,249089
2501,000000	0,248502
2500,000000	0,247712
2499,000000	0,246722
2498,000000	0,245187
2497,000000	0,243299
2496,000000	0,241959
2495,000000	0,241965
2494,000000	0,243260
2493,000000	0,245074
2492,000000	0,246580
2491,000000	0,247301
2490,000000	0,247186
2489,000000	0,246602
2488,000000	0,246101
2487,000000	0,245901
2486,000000	0,245732
2485,000000	0,245415
2484,000000	0,245291
2483,000000	0,245682
2482,000000	0,246126
2481,000000	0,245800
2480,000000	0,244770
2479,000000	0,244171
2478,000000	0,244859
2477,000000	0,246427
2476,000000	0,247921
2475,000000	0,248999
2474,000000	0,249791
2473,000000	0,250068
2472,000000	0,249328
2471,000000	0,247760
2470,000000	0,246487
2469,000000	0,246564
2468,000000	0,247910
2467,000000	0,249317
2466,000000	0,249462
2465,000000	0,247994
2464,000000	0,245885
2463,000000	0,244661
2462,000000	0,245073
2461,000000	0,246588
2460,000000	0,248250
2459,000000	0,249711
2458,000000	0,251048
2457,000000	0,251874
2456,000000	0,251408
2455,000000	0,249614
2454,000000	0,247733
2453,000000	0,247135
2452,000000	0,247729
2451,000000	0,248047
2450,000000	0,247030
2449,000000	0,245395
2448,000000	0,244821
2447,000000	0,245842
2446,000000	0,247162
2445,000000	0,247397
2444,000000	0,246941
2443,000000	0,247275
2442,000000	0,248661
2441,000000	0,249614
2440,000000	0,248961
2439,000000	0,247466
2438,000000	0,246669
2437,000000	0,246895
2436,000000	0,247320
2435,000000	0,247460
2434,000000	0,247576
2433,000000	0,247801
2432,000000	0,247934
2431,000000	0,248115
2430,000000	0,248815
2429,000000	0,249911
2428,000000	0,250509
2427,000000	0,249883
2426,000000	0,248138
2425,000000	0,245887
2424,000000	0,243886
2423,000000	0,243012
2422,000000	0,243820
2421,000000	0,245822
2420,000000	0,247763
2419,000000	0,248854
2418,000000	0,249318
2417,000000	0,249622
2416,000000	0,249839
2415,000000	0,249964
2414,000000	0,250140
2413,000000	0,250206
2412,000000	0,249634
2411,000000	0,248396
2410,000000	0,247352
2409,000000	0,247229
2408,000000	0,247657
2407,000000	0,247807
2406,000000	0,247677
2405,000000	0,248104
2404,000000	0,249548
2403,000000	0,251392
2402,000000	0,252517
2401,000000	0,252283
2400,000000	0,251028
2399,000000	0,249814
2398,000000	0,249487
2397,000000	0,249716
2396,000000	0,249255
2395,000000	0,247535
2394,000000	0,245687
2393,000000	0,245483
2392,000000	0,247305
2391,000000	0,249667
2390,000000	0,250818
2389,000000	0,250312
2388,000000	0,248905
2387,000000	0,247353
2386,000000	0,245563
2385,000000	0,242785
2384,000000	0,238297
2383,000000	0,231953
2382,000000	0,224186
2381,000000	0,215567
2380,000000	0,206503
2379,000000	0,197233
2378,000000	0,187960
2377,000000	0,178758
2376,000000	0,169354
2375,000000	0,159331
2374,000000	0,148693
2373,000000	0,138077
2372,000000	0,128249
2371,000000	0,119476
2370,000000	0,111584
2369,000000	0,104593
2368,000000	0,098939
2367,000000	0,094790
2366,000000	0,091467
2365,000000	0,087994
2364,000000	0,084289
2363,000000	0,081270
2362,000000	0,079481
2361,000000	0,078248
2360,000000	0,076695
2359,000000	0,075185
2358,000000	0,075080
2357,000000	0,077190
2356,000000	0,081186
2355,000000	0,086437
2354,000000	0,092782
2353,000000	0,100556
2352,000000	0,110383
2351,000000	0,122766
2350,000000	0,136616
2349,000000	0,148060
2348,000000	0,151950
2347,000000	0,146020
2346,000000	0,133382
2345,000000	0,120308
2344,000000	0,111458
2343,000000	0,107347
2342,000000	0,105893
2341,000000	0,105156
2340,000000	0,104549
2339,000000	0,104334
2338,000000	0,104819
2337,000000	0,106020
2336,000000	0,107753
2335,000000	0,109758
2334,000000	0,111654
2333,000000	0,112943
2332,000000	0,113354
2331,000000	0,113238
2330,000000	0,113404
2329,000000	0,114480
2328,000000	0,116492
2327,000000	0,119050
2326,000000	0,121720
2325,000000	0,124085
2324,000000	0,125859
2323,000000	0,127361
2322,000000	0,129534
2321,000000	0,133131
2320,000000	0,138068
2319,000000	0,143778
2318,000000	0,149880
2317,000000	0,156063
2316,000000	0,161638
2315,000000	0,165854
2314,000000	0,168782
2313,000000	0,171526
2312,000000	0,175272
2311,000000	0,180194
2310,000000	0,185341
2309,000000	0,189608
2308,000000	0,192778
2307,000000	0,195621
2306,000000	0,198982
2305,000000	0,202951
2304,000000	0,207103
2303,000000	0,211273
2302,000000	0,215518
2301,000000	0,219448
2300,000000	0,222332
2299,000000	0,224051
2298,000000	0,225339
2297,000000	0,226829
2296,000000	0,228395
2295,000000	0,229769
2294,000000	0,231246
2293,000000	0,233164
2292,000000	0,235167
2291,000000	0,236713
2290,000000	0,237945
2289,000000	0,239416
2288,000000	0,241217
2287,000000	0,243119
2286,000000	0,245222
2285,000000	0,247581
2284,000000	0,249300
2283,000000	0,249048
2282,000000	0,246830
2281,000000	0,244485
2280,000000	0,243857
2279,000000	0,244977
2278,000000	0,246511
2277,000000	0,247348
2276,000000	0,247190
2275,000000	0,246078
2274,000000	0,244307
2273,000000	0,242757
2272,000000	0,242529
2271,000000	0,243808
2270,000000	0,245438
2269,000000	0,246092
2268,000000	0,245730
2267,000000	0,245490
2266,000000	0,246128
2265,000000	0,247114
2264,000000	0,247509
2263,000000	0,247293
2262,000000	0,247264
2261,000000	0,247777
2260,000000	0,248260
2259,000000	0,248101
2258,000000	0,247437
2257,000000	0,246804
2256,000000	0,246507
2255,000000	0,246694
2254,000000	0,247610
2253,000000	0,249233
2252,000000	0,250847
2251,000000	0,251495
2250,000000	0,250894
2249,000000	0,249687
2248,000000	0,248886
2247,000000	0,249208
2246,000000	0,250623
2245,000000	0,252241
2244,000000	0,252878
2243,000000	0,252188
2242,000000	0,251105
2241,000000	0,250752
2240,000000	0,251126
2239,000000	0,251295
2238,000000	0,250708
2237,000000	0,249695
2236,000000	0,248798
2235,000000	0,248290
2234,000000	0,248461
2233,000000	0,249623
2232,000000	0,251470
2231,000000	0,252955
2230,000000	0,253239
2229,000000	0,252510
2228,000000	0,251542
2227,000000	0,250698
2226,000000	0,249764
2225,000000	0,248608
2224,000000	0,247708
2223,000000	0,247969
2222,000000	0,249929
2221,000000	0,252961
2220,000000	0,255359
2219,000000	0,255610
2218,000000	0,253846
2217,000000	0,251771
2216,000000	0,250962
2215,000000	0,251448
2214,000000	0,252113
2213,000000	0,252140
2212,000000	0,251672
2211,000000	0,251278
2210,000000	0,251276
2209,000000	0,251627
2208,000000	0,252114
2207,000000	0,252427
2206,000000	0,252297
2205,000000	0,251750
2204,000000	0,251082
2203,000000	0,250535
2202,000000	0,250079
2201,000000	0,249613
2200,000000	0,249274
2199,000000	0,249370
2198,000000	0,250037
2197,000000	0,251163
2196,000000	0,252597
2195,000000	0,254154
2194,000000	0,255346
2193,000000	0,255462
2192,000000	0,254262
2191,000000	0,252472
2190,000000	0,251296
2189,000000	0,251422
2188,000000	0,252572
2187,000000	0,253844
2186,000000	0,254287
2185,000000	0,253404
2184,000000	0,251533
2183,000000	0,249791
2182,000000	0,249201
2181,000000	0,249767
2180,000000	0,250657
2179,000000	0,251236
2178,000000	0,251530
2177,000000	0,251690
2176,000000	0,251509
2175,000000	0,250761
2174,000000	0,249750
2173,000000	0,249185
2172,000000	0,249547
2171,000000	0,250679
2170,000000	0,251892
2169,000000	0,252468
2168,000000	0,252307
2167,000000	0,251997
2166,000000	0,251956
2165,000000	0,251752
2164,000000	0,250792
2163,000000	0,249557
2162,000000	0,249308
2161,000000	0,250347
2160,000000	0,251458
2159,000000	0,251590
2158,000000	0,251260
2157,000000	0,251547
2156,000000	0,252339
2155,000000	0,252555
2154,000000	0,251810
2153,000000	0,250911
2152,000000	0,250655
2151,000000	0,250928
2150,000000	0,251200
2149,000000	0,251312
2148,000000	0,251450
2147,000000	0,251689
2146,000000	0,251885
2145,000000	0,251876
2144,000000	0,251664
2143,000000	0,251471
2142,000000	0,251578
2141,000000	0,251956
2140,000000	0,252212
2139,000000	0,252117
2138,000000	0,252006
2137,000000	0,252363
2136,000000	0,253123
2135,000000	0,253660
2134,000000	0,253432
2133,000000	0,252515
2132,000000	0,251572
2131,000000	0,251315
2130,000000	0,251754
2129,000000	0,251985
2128,000000	0,251180
2127,000000	0,249844
2126,000000	0,249424
2125,000000	0,250379
2124,000000	0,251336
2123,000000	0,250830
2122,000000	0,249229
2121,000000	0,248192
2120,000000	0,248578
2119,000000	0,249727
2118,000000	0,250547
2117,000000	0,250461
2116,000000	0,249484
2115,000000	0,248187
2114,000000	0,247576
2113,000000	0,248278
2112,000000	0,249788
2111,000000	0,251073
2110,000000	0,251804
2109,000000	0,252316
2108,000000	0,252554
2107,000000	0,251981
2106,000000	0,250531
2105,000000	0,248831
2104,000000	0,247419
2103,000000	0,246490
2102,000000	0,246367
2101,000000	0,247299
2100,000000	0,248645
2099,000000	0,249229
2098,000000	0,248818
2097,000000	0,248400
2096,000000	0,248659
2095,000000	0,249114
2094,000000	0,249203
2093,000000	0,249204
2092,000000	0,249394
2091,000000	0,249205
2090,000000	0,248114
2089,000000	0,246760
2088,000000	0,246263
2087,000000	0,246762
2086,000000	0,247497
2085,000000	0,248124
2084,000000	0,249032
2083,000000	0,250354
2082,000000	0,251442
2081,000000	0,251601
2080,000000	0,250858
2079,000000	0,249798
2078,000000	0,249031
2077,000000	0,248987
2076,000000	0,249848
2075,000000	0,251334
2074,000000	0,252589
2073,000000	0,252604
2072,000000	0,251064
2071,000000	0,248918
2070,000000	0,247794
2069,000000	0,248435
2068,000000	0,249785
2067,000000	0,250053
2066,000000	0,248749
2065,000000	0,247164
2064,000000	0,246717
2063,000000	0,247276
2062,000000	0,247565
2061,000000	0,246910
2060,000000	0,246036
2059,000000	0,246209
2058,000000	0,247910
2057,000000	0,250361
2056,000000	0,252175
2055,000000	0,252465
2054,000000	0,251519
2053,000000	0,250471
2052,000000	0,250296
2051,000000	0,251047
2050,000000	0,251912
2049,000000	0,251948
2048,000000	0,250919
2047,000000	0,249564
2046,000000	0,248887
2045,000000	0,249028
2044,000000	0,249105
2043,000000	0,248460
2042,000000	0,247627
2041,000000	0,247606
2040,000000	0,248515
2039,000000	0,249658
2038,000000	0,250661
2037,000000	0,251644
2036,000000	0,252354
2035,000000	0,252168
2034,000000	0,251210
2033,000000	0,250494
2032,000000	0,250576
2031,000000	0,250897
2030,000000	0,250866
2029,000000	0,250748
2028,000000	0,250848
2027,000000	0,250660
2026,000000	0,249666
2025,000000	0,248435
2024,000000	0,248087
2023,000000	0,248974
2022,000000	0,250571
2021,000000	0,252237
2020,000000	0,253363
2019,000000	0,253283
2018,000000	0,251981
2017,000000	0,250616
2016,000000	0,250470
2015,000000	0,251409
2014,000000	0,252150
2013,000000	0,251940
2012,000000	0,251140
2011,000000	0,250276
2010,000000	0,249493
2009,000000	0,248967
2008,000000	0,248940
2007,000000	0,249224
2006,000000	0,249494
2005,000000	0,250176
2004,000000	0,252031
2003,000000	0,254606
2002,000000	0,256213
2001,000000	0,256000
2000,000000	0,255019
1999,000000	0,254546
1998,000000	0,254341
1997,000000	0,253536
1996,000000	0,252394
1995,000000	0,251835
1994,000000	0,251719
1993,000000	0,251089
1992,000000	0,250084
1991,000000	0,250184
1990,000000	0,252154
1989,000000	0,254860
1988,000000	0,256637
1987,000000	0,256952
1986,000000	0,256145
1985,000000	0,254514
1984,000000	0,252505
1983,000000	0,251116
1982,000000	0,251090
1981,000000	0,251980
1980,000000	0,252752
1979,000000	0,253019
1978,000000	0,252965
1977,000000	0,252501
1976,000000	0,251453
1975,000000	0,250440
1974,000000	0,250589
1973,000000	0,252121
1972,000000	0,253961
1971,000000	0,254918
1970,000000	0,254594
1969,000000	0,253097
1968,000000	0,250791
1967,000000	0,248650
1966,000000	0,248031
1965,000000	0,249387
1964,000000	0,251598
1963,000000	0,253013
1962,000000	0,252932
1961,000000	0,251898
1960,000000	0,251036
1959,000000	0,251303
1958,000000	0,252783
1957,000000	0,254353
1956,000000	0,254544
1955,000000	0,253150
1954,000000	0,251585
1953,000000	0,251329
1952,000000	0,252481
1951,000000	0,254071
1950,000000	0,255153
1949,000000	0,255341
1948,000000	0,254789
1947,000000	0,253938
1946,000000	0,252896
1945,000000	0,251024
1944,000000	0,247867
1943,000000	0,244637
1942,000000	0,243664
1941,000000	0,245765
1940,000000	0,249103
1939,000000	0,251406
1938,000000	0,252348
1937,000000	0,252886
1936,000000	0,253334
1935,000000	0,253357
1934,000000	0,253153
1933,000000	0,253246
1932,000000	0,253405
1931,000000	0,252961
1930,000000	0,252014
1929,000000	0,251338
1928,000000	0,251210
1927,000000	0,251126
1926,000000	0,250452
1925,000000	0,248800
1924,000000	0,246318
1923,000000	0,244263
1922,000000	0,244311
1921,000000	0,246189
1920,000000	0,247041
1919,000000	0,244769
1918,000000	0,241280
1917,000000	0,240536
1916,000000	0,243744
1915,000000	0,248357
1914,000000	0,251517
1913,000000	0,252478
1912,000000	0,251758
1911,000000	0,250045
1910,000000	0,248540
1909,000000	0,248601
1908,000000	0,250079
1907,000000	0,251344
1906,000000	0,251508
1905,000000	0,251362
1904,000000	0,251734
1903,000000	0,252306
1902,000000	0,252563
1901,000000	0,252597
1900,000000	0,252491
1899,000000	0,252018
1898,000000	0,251331
1897,000000	0,250825
1896,000000	0,250177
1895,000000	0,248844
1894,000000	0,247489
1893,000000	0,247118
1892,000000	0,246839
1891,000000	0,244727
1890,000000	0,241389
1889,000000	0,240161
1888,000000	0,242679
1887,000000	0,246559
1886,000000	0,248783
1885,000000	0,249294
1884,000000	0,249479
1883,000000	0,249288
1882,000000	0,248105
1881,000000	0,247021
1880,000000	0,247772
1879,000000	0,250045
1878,000000	0,251768
1877,000000	0,251751
1876,000000	0,250598
1875,000000	0,249426
1874,000000	0,248941
1873,000000	0,248994
1872,000000	0,247999
1871,000000	0,243916
1870,000000	0,237250
1869,000000	0,231936
1868,000000	0,231576
1867,000000	0,235590
1866,000000	0,240541
1865,000000	0,244248
1864,000000	0,246740
1863,000000	0,248284
1862,000000	0,248832
1861,000000	0,249065
1860,000000	0,249843
1859,000000	0,250701
1858,000000	0,250581
1857,000000	0,249812
1856,000000	0,249661
1855,000000	0,250195
1854,000000	0,250399
1853,000000	0,250143
1852,000000	0,250192
1851,000000	0,250444
1850,000000	0,250073
1849,000000	0,249302
1848,000000	0,248812
1847,000000	0,247163
1846,000000	0,241552
1845,000000	0,232444
1844,000000	0,225302
1843,000000	0,225668
1842,000000	0,233190
1841,000000	0,242111
1840,000000	0,247282
1839,000000	0,248373
1838,000000	0,248254
1837,000000	0,248797
1836,000000	0,249541
1835,000000	0,249650
1834,000000	0,249230
1833,000000	0,247960
1832,000000	0,244146
1831,000000	0,237426
1830,000000	0,231513
1829,000000	0,231246
1828,000000	0,236303
1827,000000	0,240859
1826,000000	0,240863
1825,000000	0,238943
1824,000000	0,240003
1823,000000	0,244321
1822,000000	0,248141
1821,000000	0,249282
1820,000000	0,248734
1819,000000	0,247550
1818,000000	0,245649
1817,000000	0,243770
1816,000000	0,243495
1815,000000	0,244742
1814,000000	0,245505
1813,000000	0,244636
1812,000000	0,242884
1811,000000	0,241247
1810,000000	0,240325
1809,000000	0,241228
1808,000000	0,244619
1807,000000	0,248632
1806,000000	0,250099
1805,000000	0,248265
1804,000000	0,245109
1803,000000	0,241913
1802,000000	0,238142
1801,000000	0,234018
1800,000000	0,231492
1799,000000	0,231669
1798,000000	0,233611
1797,000000	0,236180
1796,000000	0,238554
1795,000000	0,238380
1794,000000	0,232811
1793,000000	0,223099
1792,000000	0,215562
1791,000000	0,215844
1790,000000	0,223529
1789,000000	0,233521
1788,000000	0,240728
1787,000000	0,242596
1786,000000	0,239697
1785,000000	0,235611
1784,000000	0,234301
1783,000000	0,235912
1782,000000	0,236854
1781,000000	0,235063
1780,000000	0,232768
1779,000000	0,232532
1778,000000	0,233642
1777,000000	0,234237
1776,000000	0,233958
1775,000000	0,231795
1774,000000	0,224820
1773,000000	0,213166
1772,000000	0,203688
1771,000000	0,203487
1770,000000	0,210850
1769,000000	0,217526
1768,000000	0,219578
1767,000000	0,221150
1766,000000	0,226347
1765,000000	0,232271
1764,000000	0,232854
1763,000000	0,226842
1762,000000	0,219385
1761,000000	0,216460
1760,000000	0,219345
1759,000000	0,223963
1758,000000	0,225217
1757,000000	0,222659
1756,000000	0,221076
1755,000000	0,224037
1754,000000	0,228007
1753,000000	0,225870
1752,000000	0,216424
1751,000000	0,206578
1750,000000	0,203249
1749,000000	0,206296
1748,000000	0,211047
1747,000000	0,214651
1746,000000	0,217070
1745,000000	0,218478
1744,000000	0,218903
1743,000000	0,219093
1742,000000	0,218827
1741,000000	0,216051
1740,000000	0,210782
1739,000000	0,207943
1738,000000	0,211458
1737,000000	0,216215
1736,000000	0,211700
1735,000000	0,195717
1734,000000	0,179909
1733,000000	0,177634
1732,000000	0,189392
1731,000000	0,204449
1730,000000	0,214199
1729,000000	0,219076
1728,000000	0,222832
1727,000000	0,225903
1726,000000	0,226694
1725,000000	0,225499
1724,000000	0,224383
1723,000000	0,224531
1722,000000	0,225395
1721,000000	0,224575
1720,000000	0,218153
1719,000000	0,204148
1718,000000	0,187196
1717,000000	0,176633
1716,000000	0,177620
1715,000000	0,186461
1714,000000	0,196888
1713,000000	0,207270
1712,000000	0,218168
1711,000000	0,226796
1710,000000	0,229398
1709,000000	0,226961
1708,000000	0,222806
1707,000000	0,216664
1706,000000	0,207503
1705,000000	0,200293
1704,000000	0,200979
1703,000000	0,204302
1702,000000	0,197119
1701,000000	0,177679
1700,000000	0,162069
1699,000000	0,163906
1698,000000	0,176116
1697,000000	0,181718
1696,000000	0,177713
1695,000000	0,177094
1694,000000	0,188569
1693,000000	0,205604
1692,000000	0,216843
1691,000000	0,219381
1690,000000	0,217752
1689,000000	0,215844
1688,000000	0,213407
1687,000000	0,207164
1686,000000	0,193974
1685,000000	0,176283
1684,000000	0,164447
1683,000000	0,168352
1682,000000	0,185349
1681,000000	0,202138
1680,000000	0,210084
1679,000000	0,212168
1678,000000	0,213002
1677,000000	0,210005
1676,000000	0,200549
1675,000000	0,191231
1674,000000	0,191268
1673,000000	0,199254
1672,000000	0,204413
1671,000000	0,200916
1670,000000	0,193927
1669,000000	0,191276
1668,000000	0,195005
1667,000000	0,202396
1666,000000	0,209916
1665,000000	0,213795
1664,000000	0,211434
1663,000000	0,205305
1662,000000	0,202264
1661,000000	0,206000
1660,000000	0,212884
1659,000000	0,217436
1658,000000	0,218855
1657,000000	0,217893
1656,000000	0,210452
1655,000000	0,190655
1654,000000	0,161985
1653,000000	0,140225
1652,000000	0,140582
1651,000000	0,162281
1650,000000	0,188248
1649,000000	0,200571
1648,000000	0,195428
1647,000000	0,183397
1646,000000	0,177791
1645,000000	0,183947
1644,000000	0,197305
1643,000000	0,209372
1642,000000	0,214828
1641,000000	0,214659
1640,000000	0,213182
1639,000000	0,211745
1638,000000	0,206416
1637,000000	0,193701
1636,000000	0,177936
1635,000000	0,170034
1634,000000	0,176976
1633,000000	0,194326
1632,000000	0,210768
1631,000000	0,218475
1630,000000	0,217780
1629,000000	0,213533
1628,000000	0,209824
1627,000000	0,208040
1626,000000	0,206996
1625,000000	0,204353
1624,000000	0,199464
1623,000000	0,195403
1622,000000	0,196521
1621,000000	0,202861
1620,000000	0,208272
1619,000000	0,205704
1618,000000	0,194400
1617,000000	0,181458
1616,000000	0,176130
1615,000000	0,182021
1614,000000	0,194373
1613,000000	0,204747
1612,000000	0,208434
1611,000000	0,207421
1610,000000	0,206311
1609,000000	0,206925
1608,000000	0,207816
1607,000000	0,207681
1606,000000	0,207060
1605,000000	0,206831
1604,000000	0,206953
1603,000000	0,207241
1602,000000	0,207952
1601,000000	0,209093
1600,000000	0,210116
1599,000000	0,210625
1598,000000	0,210546
1597,000000	0,209556
1596,000000	0,207509
1595,000000	0,205531
1594,000000	0,205342
1593,000000	0,207051
1592,000000	0,208849
1591,000000	0,209456
1590,000000	0,209621
1589,000000	0,210487
1588,000000	0,211712
1587,000000	0,212262
1586,000000	0,212094
1585,000000	0,211950
1584,000000	0,212105
1583,000000	0,212343
1582,000000	0,212814
1581,000000	0,213610
1580,000000	0,213316
1579,000000	0,208868
1578,000000	0,198250
1577,000000	0,184001
1576,000000	0,173548
1575,000000	0,174010
1574,000000	0,185012
1573,000000	0,197268
1572,000000	0,200506
1571,000000	0,193172
1570,000000	0,183311
1569,000000	0,179985
1568,000000	0,185074
1567,000000	0,193469
1566,000000	0,199337
1565,000000	0,201062
1564,000000	0,200707
1563,000000	0,199086
1562,000000	0,192059
1561,000000	0,174105
1560,000000	0,147836
1559,000000	0,127304
1558,000000	0,126475
1557,000000	0,144129
1556,000000	0,164891
1555,000000	0,176457
1554,000000	0,180798
1553,000000	0,185919
1552,000000	0,192806
1551,000000	0,196704
1550,000000	0,196944
1549,000000	0,197915
1548,000000	0,200762
1547,000000	0,201031
1546,000000	0,195728
1545,000000	0,187472
1544,000000	0,179667
1543,000000	0,171610
1542,000000	0,161040
1541,000000	0,149063
1540,000000	0,140770
1539,000000	0,142008
1538,000000	0,155119
1537,000000	0,175070
1536,000000	0,190410
1535,000000	0,192571
1534,000000	0,185075
1533,000000	0,180051
1532,000000	0,184418
1531,000000	0,193556
1530,000000	0,199197
1529,000000	0,198816
1528,000000	0,194792
1527,000000	0,189438
1526,000000	0,184492
1525,000000	0,181567
1524,000000	0,179230
1523,000000	0,173016
1522,000000	0,162721
1521,000000	0,156059
1520,000000	0,159844
1519,000000	0,170071
1518,000000	0,176806
1517,000000	0,177430
1516,000000	0,178423
1515,000000	0,184326
1514,000000	0,191358
1513,000000	0,194212
1512,000000	0,193237
1511,000000	0,191150
1510,000000	0,186483
1509,000000	0,175088
1508,000000	0,157399
1507,000000	0,141107
1506,000000	0,135933
1505,000000	0,145998
1504,000000	0,166254
1503,000000	0,185931
1502,000000	0,196478
1501,000000	0,196966
1500,000000	0,191846
1499,000000	0,184697
1498,000000	0,176406
1497,000000	0,168547
1496,000000	0,165078
1495,000000	0,168604
1494,000000	0,176469
1493,000000	0,182389
1492,000000	0,181889
1491,000000	0,175813
1490,000000	0,169211
1489,000000	0,167057
1488,000000	0,170566
1487,000000	0,177291
1486,000000	0,184449
1485,000000	0,190929
1484,000000	0,195880
1483,000000	0,197788
1482,000000	0,196765
1481,000000	0,195752
1480,000000	0,196778
1479,000000	0,197494
1478,000000	0,194437
1477,000000	0,188219
1476,000000	0,182081
1475,000000	0,176445
1474,000000	0,169633
1473,000000	0,163564
1472,000000	0,163755
1471,000000	0,172134
1470,000000	0,183840
1469,000000	0,192628
1468,000000	0,196059
1467,000000	0,194487
1466,000000	0,189085
1465,000000	0,183169
1464,000000	0,181613
1463,000000	0,185889
1462,000000	0,191466
1461,000000	0,192166
1460,000000	0,185198
1459,000000	0,171675
1458,000000	0,155849
1457,000000	0,145216
1456,000000	0,146708
1455,000000	0,159427
1454,000000	0,174026
1453,000000	0,182411
1452,000000	0,185203
1451,000000	0,186742
1450,000000	0,187232
1449,000000	0,184522
1448,000000	0,180513
1447,000000	0,179945
1446,000000	0,183690
1445,000000	0,188066
1444,000000	0,190404
1443,000000	0,191546
1442,000000	0,192797
1441,000000	0,193702
1440,000000	0,192730
1439,000000	0,187981
1438,000000	0,178575
1437,000000	0,167971
1436,000000	0,163755
1435,000000	0,170196
1434,000000	0,182002
1433,000000	0,189481
1432,000000	0,189132
1431,000000	0,185312
1430,000000	0,182965
1429,000000	0,183283
1428,000000	0,185787
1427,000000	0,189445
1426,000000	0,191417
1425,000000	0,189505
1424,000000	0,186235
1423,000000	0,185740
1422,000000	0,186304
1421,000000	0,181627
1420,000000	0,170874
1419,000000	0,162127
1418,000000	0,162679
1417,000000	0,170667
1416,000000	0,179208
1415,000000	0,184865
1414,000000	0,188345
1413,000000	0,190102
1412,000000	0,189772
1411,000000	0,188311
1410,000000	0,187254
1409,000000	0,186501
1408,000000	0,185074
1407,000000	0,183011
1406,000000	0,180893
1405,000000	0,178959
1404,000000	0,178190
1403,000000	0,180006
1402,000000	0,183226
1401,000000	0,183883
1400,000000	0,180425
1399,000000	0,176553
1398,000000	0,176087
1397,000000	0,177465
1396,000000	0,176609
1395,000000	0,173620
1394,000000	0,172575
1393,000000	0,175567
1392,000000	0,180443
1391,000000	0,184140
1390,000000	0,185248
1389,000000	0,183365
1388,000000	0,179148
1387,000000	0,175272
1386,000000	0,174677
1385,000000	0,177188
1384,000000	0,179957
1383,000000	0,181288
1382,000000	0,182078
1381,000000	0,183321
1380,000000	0,184528
1379,000000	0,185136
1378,000000	0,185268
1377,000000	0,184514
1376,000000	0,181965
1375,000000	0,178386
1374,000000	0,176459
1373,000000	0,177693
1372,000000	0,180314
1371,000000	0,181464
1370,000000	0,180546
1369,000000	0,179444
1368,000000	0,180141
1367,000000	0,182692
1366,000000	0,185038
1365,000000	0,184461
1364,000000	0,180087
1363,000000	0,174528
1362,000000	0,172090
1361,000000	0,174603
1360,000000	0,179652
1359,000000	0,183298
1358,000000	0,183959
1357,000000	0,182991
1356,000000	0,182193
1355,000000	0,182043
1354,000000	0,182178
1353,000000	0,182508
1352,000000	0,183221
1351,000000	0,184068
1350,000000	0,184343
1349,000000	0,183722
1348,000000	0,182820
1347,000000	0,182555
1346,000000	0,183069
1345,000000	0,183638
1344,000000	0,183558
1343,000000	0,182662
1342,000000	0,180974
1341,000000	0,178602
1340,000000	0,176191
1339,000000	0,174834
1338,000000	0,175076
1337,000000	0,176464
1336,000000	0,178274
1335,000000	0,180098
1334,000000	0,181468
1333,000000	0,181714
1332,000000	0,180960
1331,000000	0,180534
1330,000000	0,181515
1329,000000	0,183273
1328,000000	0,184270
1327,000000	0,183962
1326,000000	0,183006
1325,000000	0,182144
1324,000000	0,181773
1323,000000	0,182161
1322,000000	0,183103
1321,000000	0,183496
1320,000000	0,182391
1319,000000	0,180607
1318,000000	0,180173
1317,000000	0,181852
1316,000000	0,183975
1315,000000	0,184231
1314,000000	0,182217
1313,000000	0,179668
1312,000000	0,178532
1311,000000	0,179148
1310,000000	0,180262
1309,000000	0,180718
1308,000000	0,180846
1307,000000	0,181843
1306,000000	0,183847
1305,000000	0,185392
1304,000000	0,185053
1303,000000	0,183126
1302,000000	0,181245
1301,000000	0,180560
1300,000000	0,180949
1299,000000	0,181707
1298,000000	0,182205
1297,000000	0,182107
1296,000000	0,181564
1295,000000	0,181138
1294,000000	0,181150
1293,000000	0,181237
1292,000000	0,180958
1291,000000	0,180509
1290,000000	0,180288
1289,000000	0,180114
1288,000000	0,179528
1287,000000	0,178710
1286,000000	0,178376
1285,000000	0,178802
1284,000000	0,179591
1283,000000	0,180279
1282,000000	0,180623
1281,000000	0,180406
1280,000000	0,179624
1279,000000	0,178791
1278,000000	0,178533
1277,000000	0,178868
1276,000000	0,179318
1275,000000	0,179609
1274,000000	0,179797
1273,000000	0,179840
1272,000000	0,179615
1271,000000	0,179301
1270,000000	0,179155
1269,000000	0,178892
1268,000000	0,177880
1267,000000	0,176020
1266,000000	0,173950
1265,000000	0,172378
1264,000000	0,171557
1263,000000	0,171396
1262,000000	0,171636
1261,000000	0,171905
1260,000000	0,172013
1259,000000	0,172235
1258,000000	0,172918
1257,000000	0,173840
1256,000000	0,174471
1255,000000	0,174760
1254,000000	0,175129
1253,000000	0,175726
1252,000000	0,176245
1251,000000	0,176487
1250,000000	0,176585
1249,000000	0,176586
1248,000000	0,176297
1247,000000	0,175674
1246,000000	0,174969
1245,000000	0,174416
1244,000000	0,174116
1243,000000	0,174306
1242,000000	0,175289
1241,000000	0,176885
1240,000000	0,178320
1239,000000	0,178908
1238,000000	0,178695
1237,000000	0,178339
1236,000000	0,178435
1235,000000	0,178942
1234,000000	0,179184
1233,000000	0,178541
1232,000000	0,177212
1231,000000	0,176072
1230,000000	0,175643
1229,000000	0,175632
1228,000000	0,175548
1227,000000	0,175321
1226,000000	0,175019
1225,000000	0,174441
1224,000000	0,173530
1223,000000	0,172727
1222,000000	0,172271
1221,000000	0,171621
1220,000000	0,170318
1219,000000	0,168973
1218,000000	0,168455
1217,000000	0,168431
1216,000000	0,167846
1215,000000	0,166726
1214,000000	0,166234
1213,000000	0,166759
1212,000000	0,167132
1211,000000	0,166345
1210,000000	0,165041
1209,000000	0,164514
1208,000000	0,165025
1207,000000	0,165872
1206,000000	0,166518
1205,000000	0,166759
1204,000000	0,166234
1203,000000	0,164746
1202,000000	0,162938
1201,000000	0,161894
1200,000000	0,162037
1199,000000	0,162860
1198,000000	0,163685
1197,000000	0,164238
1196,000000	0,164496
1195,000000	0,164459
1194,000000	0,164164
1193,000000	0,163645
1192,000000	0,162920
1191,000000	0,162275
1190,000000	0,162307
1189,000000	0,163176
1188,000000	0,163951
1187,000000	0,163358
1186,000000	0,161345
1185,000000	0,159296
1184,000000	0,158461
1183,000000	0,158689
1182,000000	0,159001
1181,000000	0,158834
1180,000000	0,158193
1179,000000	0,157020
1178,000000	0,155253
1177,000000	0,153625
1176,000000	0,153404
1175,000000	0,154815
1174,000000	0,156412
1173,000000	0,156627
1172,000000	0,155512
1171,000000	0,154315
1170,000000	0,153664
1169,000000	0,153136
1168,000000	0,152587
1167,000000	0,152720
1166,000000	0,153866
1165,000000	0,155071
1164,000000	0,155127
1163,000000	0,154089
1162,000000	0,153029
1161,000000	0,152501
1160,000000	0,151955
1159,000000	0,150733
1158,000000	0,149030
1157,000000	0,147615
1156,000000	0,146939
1155,000000	0,146798
1154,000000	0,146704
1153,000000	0,146413
1152,000000	0,146117
1151,000000	0,146184
1150,000000	0,146671
1149,000000	0,147140
1148,000000	0,147084
1147,000000	0,146553
1146,000000	0,146137
1145,000000	0,146274
1144,000000	0,146759
1143,000000	0,147041
1142,000000	0,146850
1141,000000	0,146357
1140,000000	0,145754
1139,000000	0,144915
1138,000000	0,143654
1137,000000	0,142215
1136,000000	0,141144
1135,000000	0,140624
1134,000000	0,140334
1133,000000	0,140152
1132,000000	0,140507
1131,000000	0,141514
1130,000000	0,142238
1129,000000	0,141613
1128,000000	0,139963
1127,000000	0,138694
1126,000000	0,138378
1125,000000	0,138143
1124,000000	0,137197
1123,000000	0,136000
1122,000000	0,135299
1121,000000	0,134903
1120,000000	0,134231
1119,000000	0,133478
1118,000000	0,133320
1117,000000	0,133730
1116,000000	0,133954
1115,000000	0,133486
1114,000000	0,132418
1113,000000	0,131015
1112,000000	0,129644
1111,000000	0,128910
1110,000000	0,129133
1109,000000	0,129735
1108,000000	0,129838
1107,000000	0,129324
1106,000000	0,128653
1105,000000	0,127853
1104,000000	0,126566
1103,000000	0,125029
1102,000000	0,124024
1101,000000	0,123759
1100,000000	0,123655
1099,000000	0,123470
1098,000000	0,123750
1097,000000	0,124720
1096,000000	0,125596
1095,000000	0,125626
1094,000000	0,125083
1093,000000	0,124597
1092,000000	0,124144
1091,000000	0,123407
1090,000000	0,122672
1089,000000	0,122520
1088,000000	0,122790
1087,000000	0,122637
1086,000000	0,121546
1085,000000	0,119823
1084,000000	0,118188
1083,000000	0,117280
1082,000000	0,117484
1081,000000	0,118716
1080,000000	0,120206
1079,000000	0,121010
1078,000000	0,120766
1077,000000	0,119732
1076,000000	0,118292
1075,000000	0,116816
1074,000000	0,115861
1073,000000	0,115897
1072,000000	0,116618
1071,000000	0,117175
1070,000000	0,117270
1069,000000	0,117354
1068,000000	0,117579
1067,000000	0,117210
1066,000000	0,115630
1065,000000	0,113523
1064,000000	0,112268
1063,000000	0,112283
1062,000000	0,112690
1061,000000	0,112663
1060,000000	0,112387
1059,000000	0,112402
1058,000000	0,112755
1057,000000	0,113093
1056,000000	0,113224
1055,000000	0,113028
1054,000000	0,112098
1053,000000	0,110133
1052,000000	0,107721
1051,000000	0,106148
1050,000000	0,106259
1049,000000	0,107647
1048,000000	0,109125
1047,000000	0,109822
1046,000000	0,109835
1045,000000	0,109976
1044,000000	0,110799
1043,000000	0,111847
1042,000000	0,112121
1041,000000	0,111378
1040,000000	0,110536
1039,000000	0,110472
1038,000000	0,110900
1037,000000	0,111034
1036,000000	0,110938
1035,000000	0,111431
1034,000000	0,112581
1033,000000	0,113212
1032,000000	0,112463
1031,000000	0,111031
1030,000000	0,110291
1029,000000	0,110609
1028,000000	0,111168
1027,000000	0,111220
1026,000000	0,110865
1025,000000	0,110618
1024,000000	0,110633
1023,000000	0,110517
1022,000000	0,109856
1021,000000	0,108872
1020,000000	0,108496
1019,000000	0,109422
1018,000000	0,111059
1017,000000	0,111951
1016,000000	0,111375
1015,000000	0,110055
1014,000000	0,109056
1013,000000	0,108647
1012,000000	0,108686
1011,000000	0,109293
1010,000000	0,110441
1009,000000	0,111419
1008,000000	0,111571
1007,000000	0,111260
1006,000000	0,111326
1005,000000	0,111729
1004,000000	0,111691
1003,000000	0,111011
1002,000000	0,110248
1001,000000	0,109652
1000,000000	0,108939
999,000000	0,108349
998,000000	0,108764
997,000000	0,110290
996,000000	0,111598
995,000000	0,111392
994,000000	0,109950
993,000000	0,108553
992,000000	0,107944
991,000000	0,107983
990,000000	0,108496
989,000000	0,109473
988,000000	0,110459
987,000000	0,110644
986,000000	0,109735
985,000000	0,108166
984,000000	0,106654
983,000000	0,105768
982,000000	0,105756
981,000000	0,106602
980,000000	0,107785
979,000000	0,108290
978,000000	0,107442
977,000000	0,105696
976,000000	0,104426
975,000000	0,104685
974,000000	0,106095
973,000000	0,107061
972,000000	0,106255
971,000000	0,103963
970,000000	0,101742
969,000000	0,100837
968,000000	0,101144
967,000000	0,101674
966,000000	0,101680
965,000000	0,101204
964,000000	0,100832
963,000000	0,101117
962,000000	0,102086
961,000000	0,103080
960,000000	0,103255
959,000000	0,102462
958,000000	0,101464
957,000000	0,101080
956,000000	0,101210
955,000000	0,101003
954,000000	0,099974
953,000000	0,098639
952,000000	0,097864
951,000000	0,097892
950,000000	0,098203
949,000000	0,098228
948,000000	0,098039
947,000000	0,098094
946,000000	0,098424
945,000000	0,098488
944,000000	0,097798
943,000000	0,096558
942,000000	0,095450
941,000000	0,094831
940,000000	0,094550
939,000000	0,094443
938,000000	0,094539
937,000000	0,094690
936,000000	0,094500
935,000000	0,093856
934,000000	0,093189
933,000000	0,092953
932,000000	0,093108
931,000000	0,093320
930,000000	0,093428
929,000000	0,093464
928,000000	0,093384
927,000000	0,093170
926,000000	0,092967
925,000000	0,092788
924,000000	0,092369
923,000000	0,091659
922,000000	0,091100
921,000000	0,090939
920,000000	0,090605
919,000000	0,089402
918,000000	0,087698
917,000000	0,086721
916,000000	0,087066
915,000000	0,087978
914,000000	0,088422
913,000000	0,088215
912,000000	0,087792
911,000000	0,087372
910,000000	0,086855
909,000000	0,086277
908,000000	0,085815
907,000000	0,085438
906,000000	0,084938
905,000000	0,084312
904,000000	0,083793
903,000000	0,083476
902,000000	0,083208
901,000000	0,082933
900,000000	0,082871
899,000000	0,083160
898,000000	0,083484
897,000000	0,083238
896,000000	0,082169
895,000000	0,080737
894,000000	0,079703
893,000000	0,079335
892,000000	0,079145
891,000000	0,078597
890,000000	0,077863
889,000000	0,077517
888,000000	0,077590
887,000000	0,077441
886,000000	0,076763
885,000000	0,076125
884,000000	0,076116
883,000000	0,076389
882,000000	0,076125
881,000000	0,075316
880,000000	0,074889
879,000000	0,075474
878,000000	0,076627
877,000000	0,077336
876,000000	0,076913
875,000000	0,075399
874,000000	0,073555
873,000000	0,072534
872,000000	0,073031
871,000000	0,074447
870,000000	0,075269
869,000000	0,074711
868,000000	0,073608
867,000000	0,073213
866,000000	0,073575
865,000000	0,073627
864,000000	0,072721
863,000000	0,071515
862,000000	0,071060
861,000000	0,071498
860,000000	0,072113
859,000000	0,072439
858,000000	0,072834
857,000000	0,073743
856,000000	0,074744
855,000000	0,074772
854,000000	0,073394
853,000000	0,071491
852,000000	0,070325
851,000000	0,070177
850,000000	0,070312
849,000000	0,070198
848,000000	0,070101
847,000000	0,070312
846,000000	0,070479
845,000000	0,070073
844,000000	0,069265
843,000000	0,068755
842,000000	0,068853
841,000000	0,069268
840,000000	0,069649
839,000000	0,069919
838,000000	0,070066
837,000000	0,069932
836,000000	0,069388
835,000000	0,068555
834,000000	0,067782
833,000000	0,067456
832,000000	0,067779
831,000000	0,068550
830,000000	0,069179
829,000000	0,069091
828,000000	0,068142
827,000000	0,066605
826,000000	0,064962
825,000000	0,063690
824,000000	0,062986
823,000000	0,062726
822,000000	0,062722
821,000000	0,063030
820,000000	0,063825
819,000000	0,064867
818,000000	0,065459
817,000000	0,065242
816,000000	0,064678
815,000000	0,064407
814,000000	0,064445
813,000000	0,064457
812,000000	0,064525
811,000000	0,064982
810,000000	0,065574
809,000000	0,065465
808,000000	0,064309
807,000000	0,062779
806,000000	0,061873
805,000000	0,061995
804,000000	0,062819
803,000000	0,063660
802,000000	0,063860
801,000000	0,063251
800,000000	0,062427
799,000000	0,062260
798,000000	0,062902
797,000000	0,063601
796,000000	0,063724
795,000000	0,063468
794,000000	0,063350
793,000000	0,063405
792,000000	0,063287
791,000000	0,062901
790,000000	0,062517
789,000000	0,062320
788,000000	0,062194
787,000000	0,061943
786,000000	0,061555
785,000000	0,061263
784,000000	0,061383
783,000000	0,061962
782,000000	0,062579
781,000000	0,062784
780,000000	0,062813
779,000000	0,063323
778,000000	0,064366
777,000000	0,065115
776,000000	0,064914
775,000000	0,064194
774,000000	0,063772
773,000000	0,063666
772,000000	0,063313
771,000000	0,062677
770,000000	0,062345
769,000000	0,062555
768,000000	0,062896
767,000000	0,063102
766,000000	0,063390
765,000000	0,063703
764,000000	0,063411
763,000000	0,062249
762,000000	0,060939
761,000000	0,060503
760,000000	0,061130
759,000000	0,062034
758,000000	0,062365
757,000000	0,062001
756,000000	0,061477
755,000000	0,061404
754,000000	0,061927
753,000000	0,062504
752,000000	0,062373
751,000000	0,061415
750,000000	0,060355
749,000000	0,059911
748,000000	0,060001
747,000000	0,059997
746,000000	0,059617
745,000000	0,059120
744,000000	0,058725
743,000000	0,058383
742,000000	0,058014
741,000000	0,057645
740,000000	0,057321
739,000000	0,057131
738,000000	0,057303
737,000000	0,057967
736,000000	0,058832
735,000000	0,059426
734,000000	0,059520
733,000000	0,059152
732,000000	0,058387
731,000000	0,057350
730,000000	0,056356
729,000000	0,055680
728,000000	0,055308
727,000000	0,055137
726,000000	0,055345
725,000000	0,056028
724,000000	0,056491
723,000000	0,055698
722,000000	0,053742
721,000000	0,052153
720,000000	0,052231
719,000000	0,053526
718,000000	0,054517
717,000000	0,054411
716,000000	0,053663
715,000000	0,053051
714,000000	0,052900
713,000000	0,053144
712,000000	0,053568
711,000000	0,053842
710,000000	0,053675
709,000000	0,053151
708,000000	0,052654
707,000000	0,052416
706,000000	0,052339
705,000000	0,052244
704,000000	0,052093
703,000000	0,051980
702,000000	0,052011
701,000000	0,052111
700,000000	0,051936
699,000000	0,051219
698,000000	0,050228
697,000000	0,049515
696,000000	0,049155
695,000000	0,048753
694,000000	0,048307
693,000000	0,048315
692,000000	0,048695
691,000000	0,048373
690,000000	0,046713
689,000000	0,044688
688,000000	0,043703
687,000000	0,043860
686,000000	0,044169
685,000000	0,044010
684,000000	0,043597
683,000000	0,043220
682,000000	0,042922
681,000000	0,042970
680,000000	0,043411
679,000000	0,043517
678,000000	0,042796
677,000000	0,041939
676,000000	0,041835
675,000000	0,041939
674,000000	0,041079
673,000000	0,039654
672,000000	0,038911
671,000000	0,038009
670,000000	0,034580
669,000000	0,029038
668,000000	0,025764
667,000000	0,028057
666,000000	0,033905
665,000000	0,038712
664,000000	0,040690
663,000000	0,041422
662,000000	0,041973
661,000000	0,041539
660,000000	0,039946
659,000000	0,038681
658,000000	0,038740
657,000000	0,039193
656,000000	0,038869
655,000000	0,038112
654,000000	0,037811
653,000000	0,037837
652,000000	0,037532
651,000000	0,036915
650,000000	0,036490
649,000000	0,036375
648,000000	0,036302
647,000000	0,036141
646,000000	0,035969
645,000000	0,035980
644,000000	0,036514
643,000000	0,037687
642,000000	0,038817
641,000000	0,038868
640,000000	0,037779
639,000000	0,036737
638,000000	0,036687
637,000000	0,037196
636,000000	0,037264
635,000000	0,036693
634,000000	0,036207
633,000000	0,036363
632,000000	0,036933
631,000000	0,037406
630,000000	0,037446
629,000000	0,036896
628,000000	0,035754
627,000000	0,034332
626,000000	0,033242
625,000000	0,033089
624,000000	0,034029
623,000000	0,035468
622,000000	0,036520
621,000000	0,036768
620,000000	0,036247
619,000000	0,034992
618,000000	0,033079
617,000000	0,031111
616,000000	0,030121
615,000000	0,030489
614,000000	0,031353
613,000000	0,031646
612,000000	0,031395
611,000000	0,031395
610,000000	0,031859
609,000000	0,032156
608,000000	0,031762
607,000000	0,030819
606,000000	0,029800
605,000000	0,029035
604,000000	0,028702
603,000000	0,028792
602,000000	0,028861
601,000000	0,028384
600,000000	0,027570
599,000000	0,027233
598,000000	0,027703
597,000000	0,028317
596,000000	0,028469
595,000000	0,028393
594,000000	0,028596
593,000000	0,029126
592,000000	0,029524
591,000000	0,029323
590,000000	0,028338
589,000000	0,026827
588,000000	0,025546
587,000000	0,025066
586,000000	0,025193
585,000000	0,025529
584,000000	0,025989
583,000000	0,026652
582,000000	0,027181
581,000000	0,027105
580,000000	0,026759
579,000000	0,027059
578,000000	0,028121
577,000000	0,028970
576,000000	0,029062
575,000000	0,028938
574,000000	0,029008
573,000000	0,028663
572,000000	0,027281
571,000000	0,025562
570,000000	0,024705
569,000000	0,024854
568,000000	0,025167
567,000000	0,025096
566,000000	0,024764
565,000000	0,024343
564,000000	0,023790
563,000000	0,023207
562,000000	0,022956
561,000000	0,022983
560,000000	0,022808
559,000000	0,022150
558,000000	0,021206
557,000000	0,020511
556,000000	0,020519
555,000000	0,021110
554,000000	0,021546
553,000000	0,021272
552,000000	0,020714
551,000000	0,020779
550,000000	0,021317
549,000000	0,021270
548,000000	0,020596
547,000000	0,020291
546,000000	0,020857
545,000000	0,021474
544,000000	0,020949
543,000000	0,019332
542,000000	0,017688
541,000000	0,016894
540,000000	0,017340
539,000000	0,019040
538,000000	0,021211
537,000000	0,022384
536,000000	0,021755
535,000000	0,020134
534,000000	0,018833
533,000000	0,018064
532,000000	0,017260
531,000000	0,016416
530,000000	0,016184
529,000000	0,016696
528,000000	0,017475
527,000000	0,018661
526,000000	0,020440
525,000000	0,021814
524,000000	0,021578
523,000000	0,019944
522,000000	0,018478
521,000000	0,018321
520,000000	0,019233
519,000000	0,020298
518,000000	0,021006
517,000000	0,021439
516,000000	0,021584
515,000000	0,021126
514,000000	0,019860
513,000000	0,017921
512,000000	0,015912
511,000000	0,014749
510,000000	0,015089
509,000000	0,016563
508,000000	0,017586
507,000000	0,017298
506,000000	0,016493
505,000000	0,015968
504,000000	0,015744
503,000000	0,015774
502,000000	0,016110
501,000000	0,016499
500,000000	0,016388
499,000000	0,015658
498,000000	0,015096
497,000000	0,015362
496,000000	0,015741
495,000000	0,015030
494,000000	0,013365
493,000000	0,012219
492,000000	0,012403
491,000000	0,013038
490,000000	0,013035
489,000000	0,012486
488,000000	0,012176
487,000000	0,012217
486,000000	0,012189
485,000000	0,012172
484,000000	0,012595
483,000000	0,013355
482,000000	0,013618
481,000000	0,012697
480,000000	0,010973
479,000000	0,009546
478,000000	0,009146
477,000000	0,009867
476,000000	0,011377
475,000000	0,013112
474,000000	0,014560
473,000000	0,015042
472,000000	0,014191
471,000000	0,012729
470,000000	0,011740
469,000000	0,011495
468,000000	0,011517
467,000000	0,011438
466,000000	0,011172
465,000000	0,010591
464,000000	0,009864
463,000000	0,009651
462,000000	0,010070
461,000000	0,010224
460,000000	0,009515
459,000000	0,008548
458,000000	0,008276
457,000000	0,008840
456,000000	0,009690
455,000000	0,010324
454,000000	0,010434
453,000000	0,009763
452,000000	0,008179
451,000000	0,006035
450,000000	0,004760
449,000000	0,005519
448,000000	0,007510
447,000000	0,010061
446,000000	0,012970
445,000000	0,015641
444,000000	0,016866
443,000000	0,015959
442,000000	0,013073
441,000000	0,008716
440,000000	0,003920
439,000000	0,002533
438,000000	0,005721
437,000000	0,007718
436,000000	0,007706
435,000000	0,006200
434,000000	0,006027
433,000000	0,008020
432,000000	0,010054
431,000000	0,012330
430,000000	0,014567
429,000000	0,015373
428,000000	0,013712
427,000000	0,009438
426,000000	0,004255
425,000000	0,002026
424,000000	0,000784
423,000000	0,004555
422,000000	0,008881
421,000000	0,009622
420,000000	0,006565
419,000000	0,003527
418,000000	0,004093
417,000000	0,005285
416,000000	0,007157
415,000000	0,009524
414,000000	0,011373
413,000000	0,011625
412,000000	0,009580
411,000000	0,005143
410,000000	0,001182
409,000000	0,002698
408,000000	0,001264
407,000000	0,003211
406,000000	0,006266
405,000000	0,007382
404,000000	0,007212
403,000000	0,005659
402,000000	0,003459
401,000000	0,004126
400,000000	0,006132
399,000000	0,006562
398,000000	0,005890
397,000000	0,005930
396,000000	0,007065
395,000000	0,007274
394,000000	0,005518
393,000000	0,003097
392,000000	0,001311
391,000000	0,001207
390,000000	0,003133
389,000000	0,004899
388,000000	0,005847
387,000000	0,006003
386,000000	0,005839
385,000000	0,005496
384,000000	0,004487
383,000000	0,002842
382,000000	0,002701
381,000000	0,003362
380,000000	0,002641
379,000000	0,000512
378,000000	0,002187
377,000000	0,004457
376,000000	0,005546
375,000000	0,004772
374,000000	0,002422
373,000000	0,001525
372,000000	0,003826
371,000000	0,005781
370,000000	0,007559
369,000000	0,007872
368,000000	0,006022
367,000000	0,002993
366,000000	0,001688
365,000000	0,003300
364,000000	0,004605
363,000000	0,005739
362,000000	0,006570
361,000000	0,006258
360,000000	0,005227
359,000000	0,004289
358,000000	0,002494
357,000000	0,002247
356,000000	0,004208
355,000000	0,004531
354,000000	0,004036
353,000000	0,004486
352,000000	0,005952
351,000000	0,006773
350,000000	0,005339
349,000000	0,002466
348,000000	0,002525
347,000000	0,002412
346,000000	0,000712
345,000000	0,001379
344,000000	0,002301
343,000000	0,003455
342,000000	0,004059
341,000000	0,003020
340,000000	0,002416
339,000000	0,003372
338,000000	0,004483
337,000000	0,005778
336,000000	0,005792
335,000000	0,004937
334,000000	0,004617
333,000000	0,004928
332,000000	0,005097
331,000000	0,004674
330,000000	0,003813
329,000000	0,002667
328,000000	0,001171
327,000000	0,000675
326,000000	0,002196
325,000000	0,002626
324,000000	0,002419
323,000000	0,003376
322,000000	0,004469
321,000000	0,004475
320,000000	0,003602
319,000000	0,002693
318,000000	0,001590
317,000000	0,002639
316,000000	0,004947
315,000000	0,005213
314,000000	0,004105
313,000000	0,004931
312,000000	0,006019
311,000000	0,005182
310,000000	0,004241
309,000000	0,004722
308,000000	0,004231
307,000000	0,002910
306,000000	0,003395
305,000000	0,004975
304,000000	0,006236
303,000000	0,005846
302,000000	0,004050
301,000000	0,003546
300,000000	0,003764
299,000000	0,002923
298,000000	0,003461
297,000000	0,005135
296,000000	0,005155
295,000000	0,005183
294,000000	0,005612
293,000000	0,004089
292,000000	0,001455
291,000000	0,000686
290,000000	0,001269
289,000000	0,001996
288,000000	0,002165
287,000000	0,001264
286,000000	0,000299
285,000000	0,001228
284,000000	0,001733
283,000000	0,001871
282,000000	0,001587
281,000000	0,001832
280,000000	0,003104
279,000000	0,004090
278,000000	0,003935
277,000000	0,002853
276,000000	0,000925
275,000000	0,001369
274,000000	0,003760
273,000000	0,005015
272,000000	0,005301
271,000000	0,005112
270,000000	0,004950
269,000000	0,005138
268,000000	0,005274
267,000000	0,004655
266,000000	0,003221
265,000000	0,001858
264,000000	0,001871
263,000000	0,003178
262,000000	0,004888
261,000000	0,005711
260,000000	0,004432
259,000000	0,000834
258,000000	0,002730
257,000000	0,004443
256,000000	0,004515
255,000000	0,004462
254,000000	0,004897
253,000000	0,005094
252,000000	0,004094
251,000000	0,001634
250,000000	0,001710
249,000000	0,005325
248,000000	0,006956
247,000000	0,006772
246,000000	0,006457
245,000000	0,006511
244,000000	0,005953
243,000000	0,004243
242,000000	0,001394
241,000000	0,001419
240,000000	0,003507
239,000000	0,004403
238,000000	0,004293
237,000000	0,003324
236,000000	0,001964
235,000000	0,000840
234,000000	0,002435
233,000000	0,005458
232,000000	0,006954
231,000000	0,005839
230,000000	0,003557
229,000000	0,003479
228,000000	0,004177
227,000000	0,003696
226,000000	0,005018
225,000000	0,007992
224,000000	0,009351
223,000000	0,008225
222,000000	0,005407
221,000000	0,002436
220,000000	0,002095
219,000000	0,004595
218,000000	0,006731
217,000000	0,006662
216,000000	0,004909
215,000000	0,003865
214,000000	0,003660
213,000000	0,002083
212,000000	0,000714
211,000000	0,001870
210,000000	0,002966
209,000000	0,005761
208,000000	0,007487
207,000000	0,007501
206,000000	0,006985
205,000000	0,006759
204,000000	0,006052
203,000000	0,004394
202,000000	0,002571
201,000000	0,002682
200,000000	0,003309
