PE IR       SUBTECH     SPECTRUM    ASCII       PEDS        4.00        
   -1
ZnO on back of Si transmittance .ASC
25/04/22
10:12:49.00
25/04/22
10:12:49.00
Praktikum
Sample 021 By Praktikum date Dienstag, April 22 2025
200,000000
#HDR
-1
-1
#GR
cm-1
EGY
1.0
0.0
4000,000000
-1,000000
3801
8
0,255643
0,000054
#DATA
4000,000000	0,174453
3999,000000	0,174675
3998,000000	0,174590
3997,000000	0,174479
3996,000000	0,174765
3995,000000	0,175329
3994,000000	0,175433
3993,000000	0,174585
3992,000000	0,173340
3991,000000	0,172983
3990,000000	0,174220
3989,000000	0,176314
3988,000000	0,177830
3987,000000	0,178100
3986,000000	0,177652
3985,000000	0,177383
3984,000000	0,177589
3983,000000	0,177922
3982,000000	0,178037
3981,000000	0,177842
3980,000000	0,177252
3979,000000	0,176118
3978,000000	0,174645
3977,000000	0,173666
3976,000000	0,174108
3975,000000	0,176021
3974,000000	0,178252
3973,000000	0,179290
3972,000000	0,178606
3971,000000	0,177062
3970,000000	0,175957
3969,000000	0,175762
3968,000000	0,175808
3967,000000	0,175267
3966,000000	0,174248
3965,000000	0,173679
3964,000000	0,174162
3963,000000	0,175212
3962,000000	0,175731
3961,000000	0,175215
3960,000000	0,174278
3959,000000	0,173963
3958,000000	0,174714
3957,000000	0,176118
3956,000000	0,177473
3955,000000	0,178350
3954,000000	0,178687
3953,000000	0,178562
3952,000000	0,178035
3951,000000	0,177146
3950,000000	0,175891
3949,000000	0,174313
3948,000000	0,172722
3947,000000	0,171818
3946,000000	0,172305
3945,000000	0,174145
3944,000000	0,176274
3943,000000	0,177286
3942,000000	0,176526
3941,000000	0,174602
3940,000000	0,172842
3939,000000	0,172251
3938,000000	0,172983
3937,000000	0,174428
3936,000000	0,175621
3935,000000	0,175705
3934,000000	0,174357
3933,000000	0,171965
3932,000000	0,169443
3931,000000	0,167829
3930,000000	0,167848
3929,000000	0,169585
3928,000000	0,172314
3927,000000	0,174729
3926,000000	0,175778
3925,000000	0,175459
3924,000000	0,174699
3923,000000	0,174305
3922,000000	0,174141
3921,000000	0,173440
3920,000000	0,171788
3919,000000	0,169556
3918,000000	0,167575
3917,000000	0,166689
3916,000000	0,167461
3915,000000	0,169792
3914,000000	0,172686
3913,000000	0,174758
3912,000000	0,175285
3911,000000	0,174786
3910,000000	0,174309
3909,000000	0,174313
3908,000000	0,174395
3907,000000	0,173862
3906,000000	0,172264
3905,000000	0,169487
3904,000000	0,165789
3903,000000	0,161941
3902,000000	0,158978
3901,000000	0,157546
3900,000000	0,157757
3899,000000	0,159663
3898,000000	0,163337
3897,000000	0,168246
3896,000000	0,172904
3895,000000	0,175721
3894,000000	0,176201
3893,000000	0,174976
3892,000000	0,172880
3891,000000	0,170630
3890,000000	0,169188
3889,000000	0,169320
3888,000000	0,170412
3887,000000	0,170587
3886,000000	0,168871
3885,000000	0,166746
3884,000000	0,166567
3883,000000	0,168655
3882,000000	0,170803
3881,000000	0,170893
3880,000000	0,169277
3879,000000	0,168063
3878,000000	0,168669
3877,000000	0,170588
3876,000000	0,172168
3875,000000	0,172213
3874,000000	0,170698
3873,000000	0,168314
3872,000000	0,165495
3871,000000	0,162023
3870,000000	0,158040
3869,000000	0,155031
3868,000000	0,154849
3867,000000	0,157580
3866,000000	0,161018
3865,000000	0,162838
3864,000000	0,163068
3863,000000	0,163616
3862,000000	0,165725
3861,000000	0,168732
3860,000000	0,171334
3859,000000	0,172977
3858,000000	0,173467
3857,000000	0,171749
3856,000000	0,166031
3855,000000	0,155642
3854,000000	0,142962
3853,000000	0,133094
3852,000000	0,130807
3851,000000	0,137109
3850,000000	0,148662
3849,000000	0,160564
3848,000000	0,169739
3847,000000	0,175648
3846,000000	0,178483
3845,000000	0,178157
3844,000000	0,175213
3843,000000	0,171360
3842,000000	0,168225
3841,000000	0,165749
3840,000000	0,162479
3839,000000	0,157658
3838,000000	0,152489
3837,000000	0,149193
3836,000000	0,149354
3835,000000	0,152985
3834,000000	0,158713
3833,000000	0,164356
3832,000000	0,167980
3831,000000	0,169098
3830,000000	0,169036
3829,000000	0,169741
3828,000000	0,171968
3827,000000	0,174754
3826,000000	0,176704
3825,000000	0,177235
3824,000000	0,176069
3823,000000	0,172337
3822,000000	0,165535
3821,000000	0,157599
3820,000000	0,152686
3819,000000	0,153331
3818,000000	0,157405
3817,000000	0,160138
3816,000000	0,159343
3815,000000	0,157895
3814,000000	0,160235
3813,000000	0,167234
3812,000000	0,175335
3811,000000	0,180319
3810,000000	0,180693
3809,000000	0,177533
3808,000000	0,172494
3807,000000	0,167161
3806,000000	0,163588
3805,000000	0,163347
3804,000000	0,165343
3803,000000	0,165881
3802,000000	0,162465
3801,000000	0,157326
3800,000000	0,155622
3799,000000	0,159914
3798,000000	0,167350
3797,000000	0,173053
3796,000000	0,175173
3795,000000	0,175717
3794,000000	0,177319
3793,000000	0,180449
3792,000000	0,183807
3791,000000	0,186085
3790,000000	0,186834
3789,000000	0,186324
3788,000000	0,185149
3787,000000	0,183816
3786,000000	0,182435
3785,000000	0,180945
3784,000000	0,179645
3783,000000	0,178980
3782,000000	0,178763
3781,000000	0,178136
3780,000000	0,176715
3779,000000	0,175455
3778,000000	0,175864
3777,000000	0,178362
3776,000000	0,181716
3775,000000	0,184220
3774,000000	0,185141
3773,000000	0,184748
3772,000000	0,183130
3771,000000	0,179872
3770,000000	0,175373
3769,000000	0,171788
3768,000000	0,171459
3767,000000	0,174221
3766,000000	0,177357
3765,000000	0,178722
3764,000000	0,178914
3763,000000	0,179555
3762,000000	0,180456
3761,000000	0,179799
3760,000000	0,176766
3759,000000	0,172725
3758,000000	0,169781
3757,000000	0,169087
3756,000000	0,170346
3755,000000	0,171804
3754,000000	0,170829
3753,000000	0,165627
3752,000000	0,157080
3751,000000	0,148452
3750,000000	0,143033
3749,000000	0,142452
3748,000000	0,146246
3747,000000	0,151552
3746,000000	0,153789
3745,000000	0,150111
3744,000000	0,143275
3743,000000	0,140311
3742,000000	0,145641
3741,000000	0,156697
3740,000000	0,166783
3739,000000	0,171112
3738,000000	0,169246
3737,000000	0,163200
3736,000000	0,155644
3735,000000	0,149562
3734,000000	0,147216
3733,000000	0,148718
3732,000000	0,152499
3731,000000	0,157260
3730,000000	0,162470
3729,000000	0,167166
3728,000000	0,169830
3727,000000	0,170085
3726,000000	0,169413
3725,000000	0,169489
3724,000000	0,170466
3723,000000	0,171430
3722,000000	0,171893
3721,000000	0,172196
3720,000000	0,172779
3719,000000	0,173760
3718,000000	0,175186
3717,000000	0,177135
3716,000000	0,179271
3715,000000	0,180363
3714,000000	0,178693
3713,000000	0,173575
3712,000000	0,166638
3711,000000	0,161178
3710,000000	0,159778
3709,000000	0,162496
3708,000000	0,167477
3707,000000	0,172813
3706,000000	0,177421
3705,000000	0,180622
3704,000000	0,181811
3703,000000	0,180781
3702,000000	0,178065
3701,000000	0,174939
3700,000000	0,173071
3699,000000	0,173616
3698,000000	0,176215
3697,000000	0,179114
3696,000000	0,180717
3695,000000	0,180973
3694,000000	0,180749
3693,000000	0,180176
3692,000000	0,178242
3691,000000	0,173923
3690,000000	0,167455
3689,000000	0,160755
3688,000000	0,156794
3687,000000	0,157963
3686,000000	0,164152
3685,000000	0,172632
3684,000000	0,180225
3683,000000	0,185368
3682,000000	0,187945
3681,000000	0,188060
3680,000000	0,186046
3679,000000	0,182753
3678,000000	0,178410
3677,000000	0,171825
3676,000000	0,162590
3675,000000	0,153988
3674,000000	0,151240
3673,000000	0,155696
3672,000000	0,162511
3671,000000	0,165489
3670,000000	0,163447
3669,000000	0,160777
3668,000000	0,162276
3667,000000	0,168778
3666,000000	0,177379
3665,000000	0,184472
3664,000000	0,188180
3663,000000	0,189103
3662,000000	0,189290
3661,000000	0,190238
3660,000000	0,191588
3659,000000	0,191606
3658,000000	0,188931
3657,000000	0,183938
3656,000000	0,178788
3655,000000	0,176076
3654,000000	0,176655
3653,000000	0,178376
3652,000000	0,177498
3651,000000	0,172088
3650,000000	0,163938
3649,000000	0,156925
3648,000000	0,153876
3647,000000	0,155393
3646,000000	0,160745
3645,000000	0,168555
3644,000000	0,176774
3643,000000	0,183176
3642,000000	0,186693
3641,000000	0,187955
3640,000000	0,188358
3639,000000	0,188883
3638,000000	0,189823
3637,000000	0,190886
3636,000000	0,191191
3635,000000	0,189896
3634,000000	0,187212
3633,000000	0,184327
3632,000000	0,181646
3631,000000	0,177625
3630,000000	0,170616
3629,000000	0,161906
3628,000000	0,155889
3627,000000	0,156272
3626,000000	0,162404
3625,000000	0,170188
3624,000000	0,176143
3623,000000	0,179615
3622,000000	0,181252
3621,000000	0,180789
3620,000000	0,177627
3619,000000	0,172997
3618,000000	0,169934
3617,000000	0,170607
3616,000000	0,174156
3615,000000	0,177758
3614,000000	0,179396
3613,000000	0,179211
3612,000000	0,178409
3611,000000	0,177468
3610,000000	0,175899
3609,000000	0,173576
3608,000000	0,171707
3607,000000	0,172053
3606,000000	0,175101
3605,000000	0,179468
3604,000000	0,183208
3603,000000	0,185305
3602,000000	0,185847
3601,000000	0,185312
3600,000000	0,184344
3599,000000	0,183910
3598,000000	0,184625
3597,000000	0,185944
3596,000000	0,186574
3595,000000	0,185949
3594,000000	0,184850
3593,000000	0,184316
3592,000000	0,184424
3591,000000	0,184299
3590,000000	0,182892
3589,000000	0,179696
3588,000000	0,175293
3587,000000	0,171488
3586,000000	0,170468
3585,000000	0,173138
3584,000000	0,178362
3583,000000	0,183944
3582,000000	0,188248
3581,000000	0,190805
3580,000000	0,191884
3579,000000	0,191936
3578,000000	0,191337
3577,000000	0,190290
3576,000000	0,189014
3575,000000	0,188067
3574,000000	0,188164
3573,000000	0,189411
3572,000000	0,190964
3571,000000	0,191636
3570,000000	0,190613
3569,000000	0,187640
3568,000000	0,183005
3567,000000	0,177915
3566,000000	0,174491
3565,000000	0,174544
3564,000000	0,178067
3563,000000	0,183132
3562,000000	0,187399
3561,000000	0,189675
3560,000000	0,190289
3559,000000	0,190348
3558,000000	0,190758
3557,000000	0,191667
3556,000000	0,192643
3555,000000	0,193241
3554,000000	0,193333
3553,000000	0,193008
3552,000000	0,192482
3551,000000	0,192140
3550,000000	0,192310
3549,000000	0,192699
3548,000000	0,192399
3547,000000	0,190824
3546,000000	0,188490
3545,000000	0,186625
3544,000000	0,186131
3543,000000	0,187099
3542,000000	0,189057
3541,000000	0,191206
3540,000000	0,192622
3539,000000	0,192871
3538,000000	0,192531
3537,000000	0,192664
3536,000000	0,193592
3535,000000	0,194624
3534,000000	0,195059
3533,000000	0,194964
3532,000000	0,194661
3531,000000	0,193955
3530,000000	0,192546
3529,000000	0,190950
3528,000000	0,190320
3527,000000	0,191172
3526,000000	0,192700
3525,000000	0,193649
3524,000000	0,193520
3523,000000	0,192648
3522,000000	0,191553
3521,000000	0,190639
3520,000000	0,190369
3519,000000	0,191125
3518,000000	0,192663
3517,000000	0,194090
3516,000000	0,194686
3515,000000	0,194590
3514,000000	0,194493
3513,000000	0,194762
3512,000000	0,195079
3511,000000	0,194868
3510,000000	0,193898
3509,000000	0,192524
3508,000000	0,191490
3507,000000	0,191425
3506,000000	0,192406
3505,000000	0,193955
3504,000000	0,195417
3503,000000	0,196220
3502,000000	0,195953
3501,000000	0,194642
3500,000000	0,193068
3499,000000	0,192494
3498,000000	0,193509
3497,000000	0,195314
3496,000000	0,196499
3495,000000	0,196344
3494,000000	0,195272
3493,000000	0,194191
3492,000000	0,193734
3491,000000	0,193903
3490,000000	0,194146
3489,000000	0,193892
3488,000000	0,193309
3487,000000	0,193217
3486,000000	0,193934
3485,000000	0,194674
3484,000000	0,194658
3483,000000	0,194348
3482,000000	0,194705
3481,000000	0,195541
3480,000000	0,195686
3479,000000	0,194773
3478,000000	0,193764
3477,000000	0,193472
3476,000000	0,193648
3475,000000	0,193875
3474,000000	0,194338
3473,000000	0,195134
3472,000000	0,195781
3471,000000	0,196150
3470,000000	0,196972
3469,000000	0,198490
3468,000000	0,199422
3467,000000	0,198464
3466,000000	0,196336
3465,000000	0,195090
3464,000000	0,195448
3463,000000	0,196050
3462,000000	0,195472
3461,000000	0,193902
3460,000000	0,192500
3459,000000	0,191879
3458,000000	0,191858
3457,000000	0,192168
3456,000000	0,192800
3455,000000	0,193873
3454,000000	0,195412
3453,000000	0,197100
3452,000000	0,198195
3451,000000	0,197996
3450,000000	0,196552
3449,000000	0,194663
3448,000000	0,193109
3447,000000	0,192299
3446,000000	0,192538
3445,000000	0,194020
3444,000000	0,196238
3443,000000	0,197907
3442,000000	0,198091
3441,000000	0,197181
3440,000000	0,196391
3439,000000	0,196405
3438,000000	0,196890
3437,000000	0,197195
3436,000000	0,197111
3435,000000	0,196908
3434,000000	0,196943
3433,000000	0,197366
3432,000000	0,198072
3431,000000	0,198895
3430,000000	0,199782
3429,000000	0,200741
3428,000000	0,201689
3427,000000	0,202366
3426,000000	0,202533
3425,000000	0,202171
3424,000000	0,201423
3423,000000	0,200530
3422,000000	0,199844
3421,000000	0,199702
3420,000000	0,200119
3419,000000	0,200654
3418,000000	0,200751
3417,000000	0,200312
3416,000000	0,199861
3415,000000	0,200056
3414,000000	0,200974
3413,000000	0,201867
3412,000000	0,201793
3411,000000	0,200600
3410,000000	0,199203
3409,000000	0,198677
3408,000000	0,199143
3407,000000	0,199768
3406,000000	0,199809
3405,000000	0,199408
3404,000000	0,199236
3403,000000	0,199592
3402,000000	0,200177
3401,000000	0,200585
3400,000000	0,200758
3399,000000	0,200963
3398,000000	0,201447
3397,000000	0,202150
3396,000000	0,202742
3395,000000	0,202907
3394,000000	0,202729
3393,000000	0,202661
3392,000000	0,202981
3391,000000	0,203465
3390,000000	0,203733
3389,000000	0,203791
3388,000000	0,203929
3387,000000	0,204068
3386,000000	0,203611
3385,000000	0,202171
3384,000000	0,200306
3383,000000	0,199215
3382,000000	0,199662
3381,000000	0,201182
3380,000000	0,202426
3379,000000	0,202474
3378,000000	0,201680
3377,000000	0,201177
3376,000000	0,201641
3375,000000	0,202763
3374,000000	0,203993
3373,000000	0,205340
3372,000000	0,206885
3371,000000	0,207896
3370,000000	0,207288
3369,000000	0,205093
3368,000000	0,202893
3367,000000	0,202283
3366,000000	0,203282
3365,000000	0,204695
3364,000000	0,205628
3363,000000	0,206054
3362,000000	0,206197
3361,000000	0,206142
3360,000000	0,206125
3359,000000	0,206491
3358,000000	0,207103
3357,000000	0,207243
3356,000000	0,206513
3355,000000	0,205513
3354,000000	0,205260
3353,000000	0,206060
3352,000000	0,207168
3351,000000	0,207516
3350,000000	0,206694
3349,000000	0,205307
3348,000000	0,204471
3347,000000	0,204824
3346,000000	0,206045
3345,000000	0,207400
3344,000000	0,208497
3343,000000	0,209263
3342,000000	0,209418
3341,000000	0,208527
3340,000000	0,206736
3339,000000	0,204975
3338,000000	0,204152
3337,000000	0,204449
3336,000000	0,205479
3335,000000	0,206795
3334,000000	0,208061
3333,000000	0,209075
3332,000000	0,209847
3331,000000	0,210424
3330,000000	0,210577
3329,000000	0,209958
3328,000000	0,208649
3327,000000	0,207180
3326,000000	0,205866
3325,000000	0,204708
3324,000000	0,204072
3323,000000	0,204650
3322,000000	0,206334
3321,000000	0,207810
3320,000000	0,207987
3319,000000	0,207423
3318,000000	0,207554
3317,000000	0,208807
3316,000000	0,210251
3315,000000	0,210825
3314,000000	0,210255
3313,000000	0,208951
3312,000000	0,207703
3311,000000	0,207358
3310,000000	0,208104
3309,000000	0,209135
3308,000000	0,209571
3307,000000	0,209490
3306,000000	0,209486
3305,000000	0,209529
3304,000000	0,209200
3303,000000	0,208875
3302,000000	0,209496
3301,000000	0,211067
3300,000000	0,212354
3299,000000	0,212404
3298,000000	0,211523
3297,000000	0,210411
3296,000000	0,209264
3295,000000	0,208215
3294,000000	0,207777
3293,000000	0,208204
3292,000000	0,208986
3291,000000	0,209583
3290,000000	0,210101
3289,000000	0,210677
3288,000000	0,210917
3287,000000	0,210645
3286,000000	0,210644
3285,000000	0,211740
3284,000000	0,213411
3283,000000	0,214208
3282,000000	0,213510
3281,000000	0,212193
3280,000000	0,211587
3279,000000	0,212244
3278,000000	0,213656
3277,000000	0,214649
3276,000000	0,214146
3275,000000	0,212106
3274,000000	0,209781
3273,000000	0,208608
3272,000000	0,208901
3271,000000	0,209956
3270,000000	0,211120
3269,000000	0,212160
3268,000000	0,212741
3267,000000	0,212391
3266,000000	0,211243
3265,000000	0,210133
3264,000000	0,209659
3263,000000	0,209601
3262,000000	0,209562
3261,000000	0,209680
3260,000000	0,210245
3259,000000	0,211017
3258,000000	0,211467
3257,000000	0,211544
3256,000000	0,211632
3255,000000	0,211779
3254,000000	0,211507
3253,000000	0,210623
3252,000000	0,209880
3251,000000	0,210306
3250,000000	0,211844
3249,000000	0,213006
3248,000000	0,212231
3247,000000	0,209667
3246,000000	0,207301
3245,000000	0,207202
3244,000000	0,209601
3243,000000	0,212808
3242,000000	0,214915
3241,000000	0,215391
3240,000000	0,215064
3239,000000	0,214817
3238,000000	0,214591
3237,000000	0,213758
3236,000000	0,212219
3235,000000	0,210856
3234,000000	0,210730
3233,000000	0,212020
3232,000000	0,213893
3231,000000	0,215277
3230,000000	0,215587
3229,000000	0,214846
3228,000000	0,213507
3227,000000	0,212316
3226,000000	0,211979
3225,000000	0,212656
3224,000000	0,213824
3223,000000	0,214759
3222,000000	0,215090
3221,000000	0,214823
3220,000000	0,214041
3219,000000	0,212895
3218,000000	0,211834
3217,000000	0,211453
3216,000000	0,211904
3215,000000	0,212574
3214,000000	0,212502
3213,000000	0,211390
3212,000000	0,210062
3211,000000	0,209789
3210,000000	0,211021
3209,000000	0,212972
3208,000000	0,214537
3207,000000	0,215314
3206,000000	0,215469
3205,000000	0,215009
3204,000000	0,213875
3203,000000	0,212647
3202,000000	0,212398
3201,000000	0,213501
3200,000000	0,215029
3199,000000	0,215644
3198,000000	0,214873
3197,000000	0,213264
3196,000000	0,211708
3195,000000	0,210828
3194,000000	0,210754
3193,000000	0,211079
3192,000000	0,211220
3191,000000	0,211154
3190,000000	0,211480
3189,000000	0,212494
3188,000000	0,213548
3187,000000	0,213843
3186,000000	0,213684
3185,000000	0,214226
3184,000000	0,215876
3183,000000	0,217631
3182,000000	0,218260
3181,000000	0,217714
3180,000000	0,216864
3179,000000	0,216153
3178,000000	0,215186
3177,000000	0,213829
3176,000000	0,213065
3175,000000	0,214049
3174,000000	0,216363
3173,000000	0,218001
3172,000000	0,217531
3171,000000	0,215853
3170,000000	0,215063
3169,000000	0,215887
3168,000000	0,217042
3167,000000	0,217257
3166,000000	0,216844
3165,000000	0,216852
3164,000000	0,217412
3163,000000	0,217737
3162,000000	0,217369
3161,000000	0,216650
3160,000000	0,216166
3159,000000	0,216259
3158,000000	0,216967
3157,000000	0,217843
3156,000000	0,218003
3155,000000	0,217010
3154,000000	0,215630
3153,000000	0,215156
3152,000000	0,215904
3151,000000	0,217047
3150,000000	0,217874
3149,000000	0,218473
3148,000000	0,218965
3147,000000	0,218918
3146,000000	0,218058
3145,000000	0,217002
3144,000000	0,216690
3143,000000	0,217381
3142,000000	0,218663
3141,000000	0,220073
3140,000000	0,221224
3139,000000	0,221603
3138,000000	0,220946
3137,000000	0,219762
3136,000000	0,218867
3135,000000	0,218343
3134,000000	0,217475
3133,000000	0,215910
3132,000000	0,214414
3131,000000	0,214102
3130,000000	0,215158
3129,000000	0,216686
3128,000000	0,217713
3127,000000	0,218045
3126,000000	0,218073
3125,000000	0,218069
3124,000000	0,217925
3123,000000	0,217562
3122,000000	0,217322
3121,000000	0,217727
3120,000000	0,218837
3119,000000	0,220005
3118,000000	0,220392
3117,000000	0,219705
3116,000000	0,218421
3115,000000	0,217363
3114,000000	0,217165
3113,000000	0,218003
3112,000000	0,219531
3111,000000	0,220958
3110,000000	0,221425
3109,000000	0,220634
3108,000000	0,219139
3107,000000	0,217884
3106,000000	0,217419
3105,000000	0,217663
3104,000000	0,218292
3103,000000	0,219115
3102,000000	0,219967
3101,000000	0,220567
3100,000000	0,220686
3099,000000	0,220386
3098,000000	0,219914
3097,000000	0,219463
3096,000000	0,219183
3095,000000	0,219282
3094,000000	0,219826
3093,000000	0,220503
3092,000000	0,220900
3091,000000	0,221033
3090,000000	0,221262
3089,000000	0,221635
3088,000000	0,221705
3087,000000	0,221230
3086,000000	0,220704
3085,000000	0,220810
3084,000000	0,221500
3083,000000	0,222035
3082,000000	0,221912
3081,000000	0,221405
3080,000000	0,221070
3079,000000	0,221028
3078,000000	0,220943
3077,000000	0,220550
3076,000000	0,219972
3075,000000	0,219504
3074,000000	0,219260
3073,000000	0,219094
3072,000000	0,218881
3071,000000	0,218799
3070,000000	0,219186
3069,000000	0,220052
3068,000000	0,220813
3067,000000	0,220793
3066,000000	0,220052
3065,000000	0,219453
3064,000000	0,219760
3063,000000	0,220741
3062,000000	0,221366
3061,000000	0,220891
3060,000000	0,219585
3059,000000	0,218402
3058,000000	0,218048
3057,000000	0,218449
3056,000000	0,219032
3055,000000	0,219331
3054,000000	0,219323
3053,000000	0,219315
3052,000000	0,219641
3051,000000	0,220376
3050,000000	0,221285
3049,000000	0,221957
3048,000000	0,222065
3047,000000	0,221583
3046,000000	0,220778
3045,000000	0,220040
3044,000000	0,219674
3043,000000	0,219776
3042,000000	0,220240
3041,000000	0,220835
3040,000000	0,221367
3039,000000	0,221754
3038,000000	0,221918
3037,000000	0,221672
3036,000000	0,220902
3035,000000	0,219877
3034,000000	0,219217
3033,000000	0,219385
3032,000000	0,220297
3031,000000	0,221495
3030,000000	0,222573
3029,000000	0,223295
3028,000000	0,223464
3027,000000	0,223002
3026,000000	0,222219
3025,000000	0,221727
3024,000000	0,221955
3023,000000	0,222826
3022,000000	0,223923
3021,000000	0,224748
3020,000000	0,224773
3019,000000	0,223624
3018,000000	0,221613
3017,000000	0,219913
3016,000000	0,219677
3015,000000	0,220841
3014,000000	0,222148
3013,000000	0,222565
3012,000000	0,222314
3011,000000	0,222261
3010,000000	0,222692
3009,000000	0,223171
3008,000000	0,223363
3007,000000	0,223364
3006,000000	0,223286
3005,000000	0,223100
3004,000000	0,223022
3003,000000	0,223468
3002,000000	0,224342
3001,000000	0,224817
3000,000000	0,224292
2999,000000	0,223314
2998,000000	0,223002
2997,000000	0,223646
2996,000000	0,224379
2995,000000	0,224300
2994,000000	0,223456
2993,000000	0,222468
2992,000000	0,221638
2991,000000	0,220849
2990,000000	0,220195
2989,000000	0,220161
2988,000000	0,220983
2987,000000	0,222119
2986,000000	0,222684
2985,000000	0,222404
2984,000000	0,221870
2983,000000	0,221796
2982,000000	0,222244
2981,000000	0,222712
2980,000000	0,222635
2979,000000	0,221623
2978,000000	0,219622
2977,000000	0,217293
2976,000000	0,215890
2975,000000	0,216152
2974,000000	0,217451
2973,000000	0,218592
2972,000000	0,219306
2971,000000	0,220191
2970,000000	0,221228
2969,000000	0,221388
2968,000000	0,220142
2967,000000	0,218506
2966,000000	0,217873
2965,000000	0,218330
2964,000000	0,218834
2963,000000	0,218699
2962,000000	0,218205
2961,000000	0,217947
2960,000000	0,218137
2959,000000	0,218491
2958,000000	0,218429
2957,000000	0,217579
2956,000000	0,216404
2955,000000	0,215911
2954,000000	0,216392
2953,000000	0,216914
2952,000000	0,216616
2951,000000	0,215956
2950,000000	0,215873
2949,000000	0,216211
2948,000000	0,215962
2947,000000	0,214913
2946,000000	0,213948
2945,000000	0,213658
2944,000000	0,213611
2943,000000	0,213197
2942,000000	0,212415
2941,000000	0,211503
2940,000000	0,210539
2939,000000	0,209650
2938,000000	0,209052
2937,000000	0,208659
2936,000000	0,208238
2935,000000	0,208083
2934,000000	0,208766
2933,000000	0,210027
2932,000000	0,210731
2931,000000	0,210296
2930,000000	0,209473
2929,000000	0,209272
2928,000000	0,209727
2927,000000	0,210153
2926,000000	0,210141
2925,000000	0,209824
2924,000000	0,209568
2923,000000	0,209758
2922,000000	0,210567
2921,000000	0,211562
2920,000000	0,211906
2919,000000	0,211316
2918,000000	0,210562
2917,000000	0,210716
2916,000000	0,212143
2915,000000	0,214356
2914,000000	0,216504
2913,000000	0,217861
2912,000000	0,218250
2911,000000	0,218166
2910,000000	0,218174
2909,000000	0,218230
2908,000000	0,218106
2907,000000	0,218338
2906,000000	0,219783
2905,000000	0,222017
2904,000000	0,223258
2903,000000	0,222484
2902,000000	0,220826
2901,000000	0,220046
2900,000000	0,220396
2899,000000	0,220849
2898,000000	0,220858
2897,000000	0,220793
2896,000000	0,220974
2895,000000	0,221261
2894,000000	0,221603
2893,000000	0,222086
2892,000000	0,222452
2891,000000	0,222311
2890,000000	0,221867
2889,000000	0,221787
2888,000000	0,222252
2887,000000	0,222723
2886,000000	0,222763
2885,000000	0,222522
2884,000000	0,222335
2883,000000	0,222285
2882,000000	0,222278
2881,000000	0,222146
2880,000000	0,221587
2879,000000	0,220477
2878,000000	0,219359
2877,000000	0,219203
2876,000000	0,220437
2875,000000	0,222410
2874,000000	0,223908
2873,000000	0,224084
2872,000000	0,222985
2871,000000	0,221425
2870,000000	0,220280
2869,000000	0,219751
2868,000000	0,219377
2867,000000	0,218893
2866,000000	0,218673
2865,000000	0,218973
2864,000000	0,219161
2863,000000	0,218311
2862,000000	0,216442
2861,000000	0,214540
2860,000000	0,213432
2859,000000	0,213223
2858,000000	0,213794
2857,000000	0,215076
2856,000000	0,216610
2855,000000	0,217484
2854,000000	0,217225
2853,000000	0,216421
2852,000000	0,216085
2851,000000	0,216612
2850,000000	0,217627
2849,000000	0,218644
2848,000000	0,219491
2847,000000	0,220213
2846,000000	0,220894
2845,000000	0,221609
2844,000000	0,222368
2843,000000	0,223042
2842,000000	0,223489
2841,000000	0,223809
2840,000000	0,224349
2839,000000	0,225328
2838,000000	0,226504
2837,000000	0,227423
2836,000000	0,227921
2835,000000	0,228073
2834,000000	0,227683
2833,000000	0,226352
2832,000000	0,224373
2831,000000	0,223048
2830,000000	0,223426
2829,000000	0,224938
2828,000000	0,225964
2827,000000	0,225768
2826,000000	0,225179
2825,000000	0,225255
2824,000000	0,226063
2823,000000	0,227094
2822,000000	0,228112
2821,000000	0,228993
2820,000000	0,229252
2819,000000	0,228493
2818,000000	0,227099
2817,000000	0,225922
2816,000000	0,225415
2815,000000	0,225436
2814,000000	0,225710
2813,000000	0,226120
2812,000000	0,226654
2811,000000	0,227340
2810,000000	0,228103
2809,000000	0,228554
2808,000000	0,228231
2807,000000	0,227321
2806,000000	0,226780
2805,000000	0,227302
2804,000000	0,228460
2803,000000	0,229166
2802,000000	0,228788
2801,000000	0,227532
2800,000000	0,226061
2799,000000	0,225118
2798,000000	0,225179
2797,000000	0,226046
2796,000000	0,226926
2795,000000	0,227300
2794,000000	0,227479
2793,000000	0,227975
2792,000000	0,228659
2791,000000	0,228971
2790,000000	0,228645
2789,000000	0,227880
2788,000000	0,227061
2787,000000	0,226657
2786,000000	0,226935
2785,000000	0,227418
2784,000000	0,227176
2783,000000	0,226166
2782,000000	0,225667
2781,000000	0,226686
2780,000000	0,228540
2779,000000	0,229811
2778,000000	0,230142
2777,000000	0,230147
2776,000000	0,230045
2775,000000	0,229505
2774,000000	0,228622
2773,000000	0,227971
2772,000000	0,227740
2771,000000	0,227705
2770,000000	0,227978
2769,000000	0,228755
2768,000000	0,229452
2767,000000	0,229187
2766,000000	0,228202
2765,000000	0,227737
2764,000000	0,228309
2763,000000	0,229166
2762,000000	0,229711
2761,000000	0,230360
2760,000000	0,231547
2759,000000	0,232792
2758,000000	0,233299
2757,000000	0,232840
2756,000000	0,231682
2755,000000	0,230254
2754,000000	0,229213
2753,000000	0,229121
2752,000000	0,229726
2751,000000	0,230147
2750,000000	0,230046
2749,000000	0,229912
2748,000000	0,229978
2747,000000	0,229781
2746,000000	0,229190
2745,000000	0,228878
2744,000000	0,229150
2743,000000	0,229175
2742,000000	0,228175
2741,000000	0,226726
2740,000000	0,226044
2739,000000	0,226533
2738,000000	0,227712
2737,000000	0,229114
2736,000000	0,230452
2735,000000	0,231309
2734,000000	0,231493
2733,000000	0,231464
2732,000000	0,231703
2731,000000	0,231940
2730,000000	0,231714
2729,000000	0,231397
2728,000000	0,231770
2727,000000	0,232645
2726,000000	0,232771
2725,000000	0,231400
2724,000000	0,229385
2723,000000	0,228454
2722,000000	0,229657
2721,000000	0,232467
2720,000000	0,235144
2719,000000	0,236096
2718,000000	0,235234
2717,000000	0,233893
2716,000000	0,233264
2715,000000	0,233247
2714,000000	0,233098
2713,000000	0,232744
2712,000000	0,232813
2711,000000	0,233540
2710,000000	0,234361
2709,000000	0,234706
2708,000000	0,234617
2707,000000	0,234332
2706,000000	0,233750
2705,000000	0,232675
2704,000000	0,231343
2703,000000	0,230367
2702,000000	0,230202
2701,000000	0,230821
2700,000000	0,231876
2699,000000	0,232984
2698,000000	0,233851
2697,000000	0,234259
2696,000000	0,234127
2695,000000	0,233683
2694,000000	0,233413
2693,000000	0,233630
2692,000000	0,234073
2691,000000	0,234093
2690,000000	0,233300
2689,000000	0,231940
2688,000000	0,230671
2687,000000	0,230098
2686,000000	0,230458
2685,000000	0,231503
2684,000000	0,232634
2683,000000	0,233415
2682,000000	0,233982
2681,000000	0,234650
2680,000000	0,235191
2679,000000	0,234941
2678,000000	0,233761
2677,000000	0,232448
2676,000000	0,231960
2675,000000	0,232508
2674,000000	0,233604
2673,000000	0,234633
2672,000000	0,235190
2671,000000	0,235188
2670,000000	0,234903
2669,000000	0,234700
2668,000000	0,234585
2667,000000	0,234331
2666,000000	0,234066
2665,000000	0,234258
2664,000000	0,234943
2663,000000	0,235537
2662,000000	0,235685
2661,000000	0,235737
2660,000000	0,236029
2659,000000	0,236278
2658,000000	0,236167
2657,000000	0,235943
2656,000000	0,235832
2655,000000	0,235374
2654,000000	0,234166
2653,000000	0,232877
2652,000000	0,232603
2651,000000	0,233342
2650,000000	0,234026
2649,000000	0,234092
2648,000000	0,234103
2647,000000	0,234574
2646,000000	0,235063
2645,000000	0,234993
2644,000000	0,234702
2643,000000	0,235003
2642,000000	0,235936
2641,000000	0,236631
2640,000000	0,236426
2639,000000	0,235709
2638,000000	0,235435
2637,000000	0,235961
2636,000000	0,236646
2635,000000	0,236680
2634,000000	0,236063
2633,000000	0,235464
2632,000000	0,235283
2631,000000	0,235307
2630,000000	0,235366
2629,000000	0,235705
2628,000000	0,236359
2627,000000	0,236764
2626,000000	0,236564
2625,000000	0,236315
2624,000000	0,236636
2623,000000	0,237035
2622,000000	0,236488
2621,000000	0,235134
2620,000000	0,234337
2619,000000	0,234876
2618,000000	0,235944
2617,000000	0,236392
2616,000000	0,236186
2615,000000	0,236025
2614,000000	0,236088
2613,000000	0,235982
2612,000000	0,235630
2611,000000	0,235436
2610,000000	0,235633
2609,000000	0,236116
2608,000000	0,236872
2607,000000	0,237996
2606,000000	0,239226
2605,000000	0,239963
2604,000000	0,239911
2603,000000	0,239331
2602,000000	0,238567
2601,000000	0,237741
2600,000000	0,237067
2599,000000	0,236974
2598,000000	0,237547
2597,000000	0,238144
2596,000000	0,238045
2595,000000	0,237397
2594,000000	0,237084
2593,000000	0,237661
2592,000000	0,238731
2591,000000	0,239434
2590,000000	0,239308
2589,000000	0,238626
2588,000000	0,238055
2587,000000	0,238065
2586,000000	0,238496
2585,000000	0,238606
2584,000000	0,237752
2583,000000	0,236137
2582,000000	0,234720
2581,000000	0,234256
2580,000000	0,234602
2579,000000	0,235094
2578,000000	0,235416
2577,000000	0,235787
2576,000000	0,236362
2575,000000	0,236878
2574,000000	0,237016
2573,000000	0,236764
2572,000000	0,236256
2571,000000	0,235601
2570,000000	0,235126
2569,000000	0,235486
2568,000000	0,237013
2567,000000	0,239011
2566,000000	0,240156
2565,000000	0,239822
2564,000000	0,238764
2563,000000	0,238297
2562,000000	0,238900
2561,000000	0,239815
2560,000000	0,240001
2559,000000	0,239292
2558,000000	0,238480
2557,000000	0,238310
2556,000000	0,238610
2555,000000	0,238649
2554,000000	0,238193
2553,000000	0,237832
2552,000000	0,238140
2551,000000	0,238927
2550,000000	0,239567
2549,000000	0,239795
2548,000000	0,239852
2547,000000	0,239997
2546,000000	0,240277
2545,000000	0,240636
2544,000000	0,240855
2543,000000	0,240391
2542,000000	0,238820
2541,000000	0,236623
2540,000000	0,235091
2539,000000	0,235112
2538,000000	0,236285
2537,000000	0,237571
2536,000000	0,238498
2535,000000	0,239293
2534,000000	0,240011
2533,000000	0,240197
2532,000000	0,239605
2531,000000	0,238780
2530,000000	0,238570
2529,000000	0,239246
2528,000000	0,240375
2527,000000	0,241372
2526,000000	0,241868
2525,000000	0,241701
2524,000000	0,240976
2523,000000	0,240200
2522,000000	0,239954
2521,000000	0,240290
2520,000000	0,240674
2519,000000	0,240586
2518,000000	0,239925
2517,000000	0,238884
2516,000000	0,237771
2515,000000	0,237064
2514,000000	0,237274
2513,000000	0,238411
2512,000000	0,239720
2511,000000	0,240324
2510,000000	0,240139
2509,000000	0,239875
2508,000000	0,240162
2507,000000	0,240923
2506,000000	0,241701
2505,000000	0,242277
2504,000000	0,242699
2503,000000	0,242814
2502,000000	0,242228
2501,000000	0,240991
2500,000000	0,240066
2499,000000	0,240572
2498,000000	0,242395
2497,000000	0,243936
2496,000000	0,243651
2495,000000	0,241729
2494,000000	0,239793
2493,000000	0,239105
2492,000000	0,239507
2491,000000	0,240099
2490,000000	0,240427
2489,000000	0,240679
2488,000000	0,241094
2487,000000	0,241616
2486,000000	0,242033
2485,000000	0,242173
2484,000000	0,241948
2483,000000	0,241452
2482,000000	0,241008
2481,000000	0,240925
2480,000000	0,241242
2479,000000	0,241753
2478,000000	0,242213
2477,000000	0,242483
2476,000000	0,242622
2475,000000	0,242838
2474,000000	0,243155
2473,000000	0,243221
2472,000000	0,242788
2471,000000	0,242372
2470,000000	0,242811
2469,000000	0,243987
2468,000000	0,244668
2467,000000	0,244070
2466,000000	0,242901
2465,000000	0,242287
2464,000000	0,242264
2463,000000	0,242109
2462,000000	0,241741
2461,000000	0,241810
2460,000000	0,242534
2459,000000	0,243354
2458,000000	0,243817
2457,000000	0,244020
2456,000000	0,244045
2455,000000	0,243718
2454,000000	0,243199
2453,000000	0,243061
2452,000000	0,243414
2451,000000	0,243609
2450,000000	0,243179
2449,000000	0,242497
2448,000000	0,242077
2447,000000	0,241841
2446,000000	0,241630
2445,000000	0,241848
2444,000000	0,242857
2443,000000	0,244060
2442,000000	0,244367
2441,000000	0,243509
2440,000000	0,242323
2439,000000	0,241802
2438,000000	0,242274
2437,000000	0,243396
2436,000000	0,244454
2435,000000	0,244726
2434,000000	0,244044
2433,000000	0,243073
2432,000000	0,242699
2431,000000	0,243085
2430,000000	0,243583
2429,000000	0,243618
2428,000000	0,243321
2427,000000	0,243283
2426,000000	0,243937
2425,000000	0,245195
2424,000000	0,246444
2423,000000	0,246882
2422,000000	0,246201
2421,000000	0,245054
2420,000000	0,244553
2419,000000	0,245135
2418,000000	0,246116
2417,000000	0,246462
2416,000000	0,245825
2415,000000	0,244739
2414,000000	0,243949
2413,000000	0,243769
2412,000000	0,244009
2411,000000	0,244310
2410,000000	0,244518
2409,000000	0,244684
2408,000000	0,244740
2407,000000	0,244396
2406,000000	0,243611
2405,000000	0,243000
2404,000000	0,243351
2403,000000	0,244633
2402,000000	0,245885
2401,000000	0,246319
2400,000000	0,246163
2399,000000	0,246036
2398,000000	0,245909
2397,000000	0,245335
2396,000000	0,244558
2395,000000	0,244575
2394,000000	0,245748
2393,000000	0,247043
2392,000000	0,247184
2391,000000	0,246144
2390,000000	0,244920
2389,000000	0,244114
2388,000000	0,243327
2387,000000	0,241897
2386,000000	0,239621
2385,000000	0,236711
2384,000000	0,233361
2383,000000	0,229440
2382,000000	0,224274
2381,000000	0,216871
2380,000000	0,207042
2379,000000	0,196159
2378,000000	0,186032
2377,000000	0,176867
2376,000000	0,167126
2375,000000	0,155853
2374,000000	0,144301
2373,000000	0,134591
2372,000000	0,127307
2371,000000	0,121292
2370,000000	0,115413
2369,000000	0,109645
2368,000000	0,104505
2367,000000	0,100153
2366,000000	0,096318
2365,000000	0,092601
2364,000000	0,088718
2363,000000	0,084811
2362,000000	0,081533
2361,000000	0,079556
2360,000000	0,078960
2359,000000	0,079341
2358,000000	0,080360
2357,000000	0,081991
2356,000000	0,084583
2355,000000	0,088678
2354,000000	0,094577
2353,000000	0,102131
2352,000000	0,111179
2351,000000	0,122049
2350,000000	0,134402
2349,000000	0,145292
2348,000000	0,149819
2347,000000	0,145338
2346,000000	0,134485
2345,000000	0,123059
2344,000000	0,115174
2343,000000	0,111217
2342,000000	0,109726
2341,000000	0,109301
2340,000000	0,108903
2339,000000	0,108052
2338,000000	0,107448
2337,000000	0,108322
2336,000000	0,110645
2335,000000	0,112802
2334,000000	0,113508
2333,000000	0,113164
2332,000000	0,112969
2331,000000	0,113626
2330,000000	0,115278
2329,000000	0,117790
2328,000000	0,120554
2327,000000	0,122766
2326,000000	0,124401
2325,000000	0,126253
2324,000000	0,128628
2323,000000	0,130905
2322,000000	0,132830
2321,000000	0,135242
2320,000000	0,139017
2319,000000	0,144076
2318,000000	0,149836
2317,000000	0,155932
2316,000000	0,161857
2315,000000	0,166612
2314,000000	0,169733
2313,000000	0,172139
2312,000000	0,175049
2311,000000	0,178703
2310,000000	0,182710
2309,000000	0,186973
2308,000000	0,191471
2307,000000	0,195701
2306,000000	0,199258
2305,000000	0,202520
2304,000000	0,205997
2303,000000	0,209420
2302,000000	0,212208
2301,000000	0,214561
2300,000000	0,217219
2299,000000	0,220268
2298,000000	0,222962
2297,000000	0,224643
2296,000000	0,225339
2295,000000	0,225693
2294,000000	0,226750
2293,000000	0,229320
2292,000000	0,232925
2291,000000	0,235936
2290,000000	0,237384
2289,000000	0,238136
2288,000000	0,239463
2287,000000	0,241155
2286,000000	0,242140
2285,000000	0,242426
2284,000000	0,243045
2283,000000	0,244220
2282,000000	0,244978
2281,000000	0,244724
2280,000000	0,244004
2279,000000	0,243434
2278,000000	0,242949
2277,000000	0,242459
2276,000000	0,242320
2275,000000	0,242644
2274,000000	0,242934
2273,000000	0,242860
2272,000000	0,242761
2271,000000	0,242953
2270,000000	0,243147
2269,000000	0,243029
2268,000000	0,242897
2267,000000	0,243243
2266,000000	0,244009
2265,000000	0,244704
2264,000000	0,244982
2263,000000	0,244850
2262,000000	0,244536
2261,000000	0,244337
2260,000000	0,244363
2259,000000	0,244376
2258,000000	0,244137
2257,000000	0,243903
2256,000000	0,244178
2255,000000	0,244986
2254,000000	0,245854
2253,000000	0,246542
2252,000000	0,247257
2251,000000	0,248046
2250,000000	0,248563
2249,000000	0,248697
2248,000000	0,248875
2247,000000	0,249320
2246,000000	0,249483
2245,000000	0,248767
2244,000000	0,247562
2243,000000	0,247040
2242,000000	0,247846
2241,000000	0,249308
2240,000000	0,250134
2239,000000	0,249779
2238,000000	0,248950
2237,000000	0,248675
2236,000000	0,249008
2235,000000	0,249047
2234,000000	0,248321
2233,000000	0,247571
2232,000000	0,247645
2231,000000	0,248151
2230,000000	0,248031
2229,000000	0,247288
2228,000000	0,247044
2227,000000	0,247805
2226,000000	0,248767
2225,000000	0,249211
2224,000000	0,249589
2223,000000	0,250572
2222,000000	0,251783
2221,000000	0,252347
2220,000000	0,252257
2219,000000	0,252278
2218,000000	0,252634
2217,000000	0,252688
2216,000000	0,252044
2215,000000	0,251223
2214,000000	0,250953
2213,000000	0,251220
2212,000000	0,251361
2211,000000	0,250879
2210,000000	0,249906
2209,000000	0,248984
2208,000000	0,248614
2207,000000	0,248965
2206,000000	0,249787
2205,000000	0,250526
2204,000000	0,250638
2203,000000	0,249999
2202,000000	0,249183
2201,000000	0,249139
2200,000000	0,250285
2199,000000	0,251981
2198,000000	0,253092
2197,000000	0,253056
2196,000000	0,252203
2195,000000	0,251072
2194,000000	0,249792
2193,000000	0,248382
2192,000000	0,247305
2191,000000	0,247310
2190,000000	0,248622
2189,000000	0,250507
2188,000000	0,251785
2187,000000	0,251848
2186,000000	0,251148
2185,000000	0,250582
2184,000000	0,250453
2183,000000	0,250282
2182,000000	0,249713
2181,000000	0,249154
2180,000000	0,249157
2179,000000	0,249497
2178,000000	0,249505
2177,000000	0,249114
2176,000000	0,248926
2175,000000	0,249207
2174,000000	0,249532
2173,000000	0,249620
2172,000000	0,249803
2171,000000	0,250232
2170,000000	0,250273
2169,000000	0,249384
2168,000000	0,248200
2167,000000	0,247961
2166,000000	0,248916
2165,000000	0,249953
2164,000000	0,249966
2163,000000	0,249060
2162,000000	0,248172
2161,000000	0,247907
2160,000000	0,248086
2159,000000	0,248192
2158,000000	0,247930
2157,000000	0,247399
2156,000000	0,246934
2155,000000	0,246899
2154,000000	0,247535
2153,000000	0,248820
2152,000000	0,250313
2151,000000	0,251247
2150,000000	0,251044
2149,000000	0,249899
2148,000000	0,248734
2147,000000	0,248384
2146,000000	0,248905
2145,000000	0,249719
2144,000000	0,250252
2143,000000	0,250267
2142,000000	0,249771
2141,000000	0,248915
2140,000000	0,248022
2139,000000	0,247498
2138,000000	0,247640
2137,000000	0,248510
2136,000000	0,249856
2135,000000	0,251041
2134,000000	0,251293
2133,000000	0,250414
2132,000000	0,249144
2131,000000	0,248453
2130,000000	0,248533
2129,000000	0,248724
2128,000000	0,248465
2127,000000	0,248000
2126,000000	0,247863
2125,000000	0,248048
2124,000000	0,248159
2123,000000	0,248127
2122,000000	0,248267
2121,000000	0,248718
2120,000000	0,249169
2119,000000	0,249260
2118,000000	0,249004
2117,000000	0,248718
2116,000000	0,248681
2115,000000	0,248959
2114,000000	0,249448
2113,000000	0,249980
2112,000000	0,250402
2111,000000	0,250455
2110,000000	0,249671
2109,000000	0,247851
2108,000000	0,245781
2107,000000	0,244992
2106,000000	0,246290
2105,000000	0,248593
2104,000000	0,249879
2103,000000	0,249321
2102,000000	0,247904
2101,000000	0,246937
2100,000000	0,246714
2099,000000	0,246923
2098,000000	0,247611
2097,000000	0,248981
2096,000000	0,250596
2095,000000	0,251471
2094,000000	0,251006
2093,000000	0,249533
2092,000000	0,248018
2091,000000	0,247334
2090,000000	0,247618
2089,000000	0,248066
2088,000000	0,247678
2087,000000	0,246575
2086,000000	0,246177
2085,000000	0,247571
2084,000000	0,250028
2083,000000	0,251734
2082,000000	0,251780
2081,000000	0,250786
2080,000000	0,249735
2079,000000	0,249053
2078,000000	0,248836
2077,000000	0,249140
2076,000000	0,249685
2075,000000	0,249873
2074,000000	0,249447
2073,000000	0,248788
2072,000000	0,248333
2071,000000	0,248097
2070,000000	0,247937
2069,000000	0,247849
2068,000000	0,247773
2067,000000	0,247567
2066,000000	0,247441
2065,000000	0,247973
2064,000000	0,249305
2063,000000	0,250629
2062,000000	0,250881
2061,000000	0,249870
2060,000000	0,248469
2059,000000	0,247773
2058,000000	0,248180
2057,000000	0,249156
2056,000000	0,249798
2055,000000	0,249703
2054,000000	0,249276
2053,000000	0,249064
2052,000000	0,248986
2051,000000	0,248582
2050,000000	0,247891
2049,000000	0,247570
2048,000000	0,248004
2047,000000	0,248826
2046,000000	0,249466
2045,000000	0,249695
2044,000000	0,249501
2043,000000	0,248955
2042,000000	0,248458
2041,000000	0,248636
2040,000000	0,249622
2039,000000	0,250760
2038,000000	0,251368
2037,000000	0,251525
2036,000000	0,251786
2035,000000	0,252324
2034,000000	0,252707
2033,000000	0,252413
2032,000000	0,251344
2031,000000	0,249919
2030,000000	0,248859
2029,000000	0,248778
2028,000000	0,249787
2027,000000	0,251400
2026,000000	0,252759
2025,000000	0,253084
2024,000000	0,252227
2023,000000	0,250997
2022,000000	0,250582
2021,000000	0,251264
2020,000000	0,251947
2019,000000	0,251505
2018,000000	0,250297
2017,000000	0,249637
2016,000000	0,249972
2015,000000	0,250546
2014,000000	0,250910
2013,000000	0,251612
2012,000000	0,253009
2011,000000	0,254327
2010,000000	0,254521
2009,000000	0,253501
2008,000000	0,251982
2007,000000	0,250726
2006,000000	0,250376
2005,000000	0,251308
2004,000000	0,252952
2003,000000	0,253841
2002,000000	0,253151
2001,000000	0,251743
2000,000000	0,250879
1999,000000	0,250545
1998,000000	0,249995
1997,000000	0,249431
1996,000000	0,249889
1995,000000	0,251399
1994,000000	0,252470
1993,000000	0,252041
1992,000000	0,251069
1991,000000	0,251308
1990,000000	0,252892
1989,000000	0,254049
1988,000000	0,253293
1987,000000	0,251221
1986,000000	0,249788
1985,000000	0,250151
1984,000000	0,251678
1983,000000	0,252968
1982,000000	0,253327
1981,000000	0,253038
1980,000000	0,252647
1979,000000	0,252449
1978,000000	0,252579
1977,000000	0,253067
1976,000000	0,253749
1975,000000	0,254405
1974,000000	0,254968
1973,000000	0,255434
1972,000000	0,255643
1971,000000	0,255397
1970,000000	0,254744
1969,000000	0,253933
1968,000000	0,253207
1967,000000	0,252851
1966,000000	0,253199
1965,000000	0,254143
1964,000000	0,254824
1963,000000	0,254346
1962,000000	0,252838
1961,000000	0,251334
1960,000000	0,250635
1959,000000	0,250788
1958,000000	0,251539
1957,000000	0,252610
1956,000000	0,253497
1955,000000	0,253668
1954,000000	0,253145
1953,000000	0,252481
1952,000000	0,252086
1951,000000	0,251964
1950,000000	0,252055
1949,000000	0,252371
1948,000000	0,252772
1947,000000	0,253022
1946,000000	0,252930
1945,000000	0,252123
1944,000000	0,250153
1943,000000	0,247451
1942,000000	0,245725
1941,000000	0,246404
1940,000000	0,248837
1939,000000	0,251075
1938,000000	0,252247
1937,000000	0,253034
1936,000000	0,253941
1935,000000	0,254441
1934,000000	0,254152
1933,000000	0,253653
1932,000000	0,253589
1931,000000	0,253843
1930,000000	0,254037
1929,000000	0,254127
1928,000000	0,254135
1927,000000	0,253916
1926,000000	0,253359
1925,000000	0,252337
1924,000000	0,250688
1923,000000	0,248889
1922,000000	0,248168
1921,000000	0,248738
1920,000000	0,248561
1919,000000	0,245687
1918,000000	0,241694
1917,000000	0,240641
1916,000000	0,244115
1915,000000	0,249196
1914,000000	0,251959
1913,000000	0,251401
1912,000000	0,249115
1911,000000	0,246888
1910,000000	0,245854
1909,000000	0,246549
1908,000000	0,248309
1907,000000	0,249511
1906,000000	0,249444
1905,000000	0,249196
1904,000000	0,249969
1903,000000	0,251466
1902,000000	0,252630
1901,000000	0,252943
1900,000000	0,252382
1899,000000	0,251202
1898,000000	0,250300
1897,000000	0,250542
1896,000000	0,251316
1895,000000	0,251205
1894,000000	0,250465
1893,000000	0,250788
1892,000000	0,252039
1891,000000	0,251702
1890,000000	0,248898
1889,000000	0,246517
1888,000000	0,247371
1887,000000	0,250296
1886,000000	0,252190
1885,000000	0,252242
1884,000000	0,251781
1883,000000	0,251469
1882,000000	0,251175
1881,000000	0,251585
1880,000000	0,253351
1879,000000	0,255227
1878,000000	0,255302
1877,000000	0,253637
1876,000000	0,251846
1875,000000	0,250658
1874,000000	0,249796
1873,000000	0,249227
1872,000000	0,248473
1871,000000	0,245633
1870,000000	0,239751
1869,000000	0,233659
1868,000000	0,231915
1867,000000	0,235861
1866,000000	0,242660
1865,000000	0,248897
1864,000000	0,252994
1863,000000	0,254633
1862,000000	0,254312
1861,000000	0,253651
1860,000000	0,254056
1859,000000	0,254907
1858,000000	0,254728
1857,000000	0,253729
1856,000000	0,253255
1855,000000	0,253198
1854,000000	0,252391
1853,000000	0,251187
1852,000000	0,251056
1851,000000	0,251682
1850,000000	0,251236
1849,000000	0,249578
1848,000000	0,248177
1847,000000	0,246293
1846,000000	0,240797
1845,000000	0,231624
1844,000000	0,224505
1843,000000	0,225568
1842,000000	0,234261
1841,000000	0,244024
1840,000000	0,249259
1839,000000	0,249760
1838,000000	0,248730
1837,000000	0,248420
1836,000000	0,248694
1835,000000	0,248841
1834,000000	0,249010
1833,000000	0,249018
1832,000000	0,246929
1831,000000	0,241274
1830,000000	0,234773
1829,000000	0,233049
1828,000000	0,237831
1827,000000	0,243798
1826,000000	0,244771
1825,000000	0,241278
1824,000000	0,239020
1823,000000	0,240934
1822,000000	0,244652
1821,000000	0,247326
1820,000000	0,249012
1819,000000	0,250473
1818,000000	0,250953
1817,000000	0,249905
1816,000000	0,248529
1815,000000	0,248041
1814,000000	0,247970
1813,000000	0,247318
1812,000000	0,245991
1811,000000	0,244387
1810,000000	0,242884
1809,000000	0,242205
1808,000000	0,242931
1807,000000	0,244419
1806,000000	0,245455
1805,000000	0,245766
1804,000000	0,245413
1803,000000	0,243447
1802,000000	0,239451
1801,000000	0,235747
1800,000000	0,235273
1799,000000	0,237484
1798,000000	0,239333
1797,000000	0,239793
1796,000000	0,240000
1795,000000	0,238920
1794,000000	0,233416
1793,000000	0,224082
1792,000000	0,217071
1791,000000	0,217786
1790,000000	0,225247
1789,000000	0,234447
1788,000000	0,241258
1787,000000	0,243707
1786,000000	0,241760
1785,000000	0,238129
1784,000000	0,236702
1783,000000	0,238015
1782,000000	0,238708
1781,000000	0,237043
1780,000000	0,235785
1779,000000	0,237367
1778,000000	0,239865
1777,000000	0,240265
1776,000000	0,238354
1775,000000	0,234215
1774,000000	0,225822
1773,000000	0,213603
1772,000000	0,204309
1771,000000	0,204609
1770,000000	0,212259
1769,000000	0,219024
1768,000000	0,221543
1767,000000	0,224090
1766,000000	0,230058
1765,000000	0,236070
1764,000000	0,236604
1763,000000	0,231036
1762,000000	0,224107
1761,000000	0,221005
1760,000000	0,223098
1759,000000	0,227038
1758,000000	0,228008
1757,000000	0,225381
1756,000000	0,223994
1755,000000	0,227504
1754,000000	0,231913
1753,000000	0,229562
1752,000000	0,219453
1751,000000	0,208951
1750,000000	0,204739
1749,000000	0,206333
1748,000000	0,209892
1747,000000	0,213973
1746,000000	0,218424
1745,000000	0,221581
1744,000000	0,222208
1743,000000	0,221837
1742,000000	0,221758
1741,000000	0,220223
1740,000000	0,216321
1739,000000	0,214141
1738,000000	0,217446
1737,000000	0,221240
1736,000000	0,215330
1735,000000	0,198278
1734,000000	0,182484
1733,000000	0,181113
1732,000000	0,193496
1731,000000	0,207929
1730,000000	0,216182
1729,000000	0,220106
1728,000000	0,224386
1727,000000	0,228947
1726,000000	0,230827
1725,000000	0,229419
1724,000000	0,226901
1723,000000	0,225104
1722,000000	0,224183
1721,000000	0,222456
1720,000000	0,216457
1719,000000	0,203842
1718,000000	0,188254
1717,000000	0,178468
1716,000000	0,179925
1715,000000	0,189142
1714,000000	0,199214
1713,000000	0,207704
1712,000000	0,215436
1711,000000	0,220920
1710,000000	0,221582
1709,000000	0,218851
1708,000000	0,216113
1707,000000	0,212975
1706,000000	0,207630
1705,000000	0,203486
1704,000000	0,205095
1703,000000	0,207206
1702,000000	0,198094
1701,000000	0,177469
1700,000000	0,161578
1699,000000	0,163210
1698,000000	0,174870
1697,000000	0,180273
1696,000000	0,177290
1695,000000	0,178583
1694,000000	0,191503
1693,000000	0,208534
1692,000000	0,218477
1691,000000	0,219298
1690,000000	0,216546
1689,000000	0,215029
1688,000000	0,214668
1687,000000	0,210929
1686,000000	0,198740
1685,000000	0,179779
1684,000000	0,165386
1683,000000	0,166921
1682,000000	0,182497
1681,000000	0,199036
1680,000000	0,207924
1679,000000	0,211638
1678,000000	0,213836
1677,000000	0,211490
1676,000000	0,202351
1675,000000	0,193309
1674,000000	0,193305
1673,000000	0,200806
1672,000000	0,205346
1671,000000	0,201066
1670,000000	0,192811
1669,000000	0,189131
1668,000000	0,193767
1667,000000	0,204258
1666,000000	0,214679
1665,000000	0,218841
1664,000000	0,214764
1663,000000	0,207510
1662,000000	0,204935
1661,000000	0,209442
1660,000000	0,216258
1659,000000	0,220191
1658,000000	0,220900
1657,000000	0,218997
1656,000000	0,210697
1655,000000	0,191258
1654,000000	0,164548
1653,000000	0,144973
1652,000000	0,145887
1651,000000	0,166056
1650,000000	0,189520
1649,000000	0,199930
1648,000000	0,194347
1647,000000	0,183007
1646,000000	0,177919
1645,000000	0,183500
1644,000000	0,196013
1643,000000	0,208765
1642,000000	0,216804
1641,000000	0,219137
1640,000000	0,217776
1639,000000	0,214038
1638,000000	0,206226
1637,000000	0,192998
1636,000000	0,178760
1635,000000	0,172603
1634,000000	0,179766
1633,000000	0,195730
1632,000000	0,210471
1631,000000	0,217317
1630,000000	0,216636
1629,000000	0,212718
1628,000000	0,209416
1627,000000	0,208166
1626,000000	0,207579
1625,000000	0,204924
1624,000000	0,199578
1623,000000	0,195072
1622,000000	0,196103
1621,000000	0,202774
1620,000000	0,208890
1619,000000	0,207205
1618,000000	0,196626
1617,000000	0,184201
1616,000000	0,179485
1615,000000	0,186057
1614,000000	0,198531
1613,000000	0,208174
1612,000000	0,211008
1611,000000	0,209683
1610,000000	0,208201
1609,000000	0,207551
1608,000000	0,206966
1607,000000	0,206728
1606,000000	0,207534
1605,000000	0,208649
1604,000000	0,208839
1603,000000	0,208464
1602,000000	0,208727
1601,000000	0,209476
1600,000000	0,209606
1599,000000	0,209208
1598,000000	0,209411
1597,000000	0,210196
1596,000000	0,210224
1595,000000	0,209112
1594,000000	0,208229
1593,000000	0,208709
1592,000000	0,209984
1591,000000	0,210877
1590,000000	0,211118
1589,000000	0,211091
1588,000000	0,210938
1587,000000	0,210661
1586,000000	0,210583
1585,000000	0,211015
1584,000000	0,211630
1583,000000	0,211665
1582,000000	0,210946
1581,000000	0,210225
1580,000000	0,209760
1579,000000	0,207365
1578,000000	0,199577
1577,000000	0,186666
1576,000000	0,175846
1575,000000	0,176142
1574,000000	0,188491
1573,000000	0,202936
1572,000000	0,207997
1571,000000	0,201760
1570,000000	0,192201
1569,000000	0,187998
1568,000000	0,191092
1567,000000	0,197341
1566,000000	0,201665
1565,000000	0,202150
1564,000000	0,200448
1563,000000	0,197897
1562,000000	0,191111
1561,000000	0,174331
1560,000000	0,149100
1559,000000	0,128579
1558,000000	0,126530
1557,000000	0,142201
1556,000000	0,161357
1555,000000	0,172923
1554,000000	0,178921
1553,000000	0,186104
1552,000000	0,194321
1551,000000	0,198709
1550,000000	0,198848
1549,000000	0,199060
1548,000000	0,200726
1547,000000	0,200392
1546,000000	0,195724
1545,000000	0,188629
1544,000000	0,181353
1543,000000	0,173071
1542,000000	0,162186
1541,000000	0,150063
1540,000000	0,141654
1539,000000	0,143075
1538,000000	0,157069
1537,000000	0,178133
1536,000000	0,193726
1535,000000	0,194913
1534,000000	0,185882
1533,000000	0,179562
1532,000000	0,183357
1531,000000	0,193044
1530,000000	0,200316
1529,000000	0,201623
1528,000000	0,198052
1527,000000	0,191856
1526,000000	0,186092
1525,000000	0,183451
1524,000000	0,182147
1523,000000	0,176609
1522,000000	0,166074
1521,000000	0,158490
1520,000000	0,161166
1519,000000	0,170506
1518,000000	0,176865
1517,000000	0,177739
1516,000000	0,179395
1515,000000	0,185749
1514,000000	0,192409
1513,000000	0,194069
1512,000000	0,191881
1511,000000	0,189605
1510,000000	0,186101
1509,000000	0,176650
1508,000000	0,160903
1507,000000	0,146122
1506,000000	0,141751
1505,000000	0,151625
1504,000000	0,170817
1503,000000	0,189157
1502,000000	0,198366
1501,000000	0,197065
1500,000000	0,189474
1499,000000	0,180131
1498,000000	0,171337
1497,000000	0,164939
1496,000000	0,163700
1495,000000	0,168896
1494,000000	0,177454
1493,000000	0,183388
1492,000000	0,182808
1491,000000	0,177204
1490,000000	0,171809
1489,000000	0,170775
1488,000000	0,174155
1487,000000	0,179534
1486,000000	0,185697
1485,000000	0,192995
1484,000000	0,200174
1483,000000	0,203817
1482,000000	0,202642
1481,000000	0,199979
1480,000000	0,199385
1479,000000	0,199640
1478,000000	0,197204
1477,000000	0,191880
1476,000000	0,186360
1475,000000	0,181030
1474,000000	0,174086
1473,000000	0,166979
1472,000000	0,165285
1471,000000	0,172209
1470,000000	0,184338
1469,000000	0,195240
1468,000000	0,200556
1467,000000	0,198949
1466,000000	0,191853
1465,000000	0,184253
1464,000000	0,182302
1463,000000	0,187469
1462,000000	0,194497
1461,000000	0,196586
1460,000000	0,190568
1459,000000	0,177116
1458,000000	0,159981
1457,000000	0,146790
1456,000000	0,145764
1455,000000	0,157708
1454,000000	0,173741
1453,000000	0,184120
1452,000000	0,187246
1451,000000	0,187269
1450,000000	0,186476
1449,000000	0,184398
1448,000000	0,182144
1447,000000	0,182527
1446,000000	0,185959
1445,000000	0,190007
1444,000000	0,192909
1443,000000	0,194879
1442,000000	0,196223
1441,000000	0,196567
1440,000000	0,195277
1439,000000	0,190949
1438,000000	0,182331
1437,000000	0,172134
1436,000000	0,167464
1435,000000	0,172708
1434,000000	0,183350
1433,000000	0,190716
1432,000000	0,191563
1431,000000	0,189266
1430,000000	0,187350
1429,000000	0,186562
1428,000000	0,187433
1427,000000	0,190331
1426,000000	0,192837
1425,000000	0,191949
1424,000000	0,189182
1423,000000	0,188557
1422,000000	0,189136
1421,000000	0,185279
1420,000000	0,175916
1419,000000	0,168242
1418,000000	0,168862
1417,000000	0,175900
1416,000000	0,183067
1415,000000	0,187725
1414,000000	0,191065
1413,000000	0,193317
1412,000000	0,193394
1411,000000	0,191887
1410,000000	0,190792
1409,000000	0,190507
1408,000000	0,189533
1407,000000	0,186824
1406,000000	0,182998
1405,000000	0,179884
1404,000000	0,179688
1403,000000	0,183047
1402,000000	0,187017
1401,000000	0,187006
1400,000000	0,182333
1399,000000	0,177611
1398,000000	0,176760
1397,000000	0,178042
1396,000000	0,177429
1395,000000	0,175029
1394,000000	0,174757
1393,000000	0,178722
1392,000000	0,184751
1391,000000	0,189103
1390,000000	0,189488
1389,000000	0,185717
1388,000000	0,179867
1387,000000	0,175749
1386,000000	0,176143
1385,000000	0,180181
1384,000000	0,184690
1383,000000	0,187607
1382,000000	0,188897
1381,000000	0,188990
1380,000000	0,188295
1379,000000	0,187872
1378,000000	0,188511
1377,000000	0,189075
1376,000000	0,187529
1375,000000	0,183941
1374,000000	0,180956
1373,000000	0,181032
1372,000000	0,184113
1371,000000	0,188164
1370,000000	0,191048
1369,000000	0,191872
1368,000000	0,191403
1367,000000	0,191107
1366,000000	0,191170
1365,000000	0,189928
1364,000000	0,186124
1363,000000	0,181273
1362,000000	0,178471
1361,000000	0,179059
1360,000000	0,181785
1359,000000	0,184834
1358,000000	0,187356
1357,000000	0,189073
1356,000000	0,189822
1355,000000	0,189879
1354,000000	0,189766
1353,000000	0,189466
1352,000000	0,188598
1351,000000	0,187451
1350,000000	0,186933
1349,000000	0,187309
1348,000000	0,187791
1347,000000	0,187721
1346,000000	0,187447
1345,000000	0,187733
1344,000000	0,188631
1343,000000	0,189146
1342,000000	0,187993
1341,000000	0,184923
1340,000000	0,181466
1339,000000	0,179932
1338,000000	0,181131
1337,000000	0,183603
1336,000000	0,185540
1335,000000	0,186704
1334,000000	0,187893
1333,000000	0,189145
1332,000000	0,189708
1331,000000	0,189507
1330,000000	0,189436
1329,000000	0,189947
1328,000000	0,190298
1327,000000	0,189639
1326,000000	0,188187
1325,000000	0,186924
1324,000000	0,186446
1323,000000	0,186483
1322,000000	0,186306
1321,000000	0,185460
1320,000000	0,184264
1319,000000	0,183508
1318,000000	0,183575
1317,000000	0,184044
1316,000000	0,184286
1315,000000	0,184221
1314,000000	0,184214
1313,000000	0,184526
1312,000000	0,185107
1311,000000	0,185737
1310,000000	0,186160
1309,000000	0,186303
1308,000000	0,186458
1307,000000	0,186844
1306,000000	0,186945
1305,000000	0,186113
1304,000000	0,184858
1303,000000	0,184524
1302,000000	0,185381
1301,000000	0,185961
1300,000000	0,185115
1299,000000	0,183804
1298,000000	0,183682
1297,000000	0,184686
1296,000000	0,185366
1295,000000	0,185259
1294,000000	0,185373
1293,000000	0,186357
1292,000000	0,187460
1291,000000	0,187668
1290,000000	0,186963
1289,000000	0,186079
1288,000000	0,185677
1287,000000	0,185909
1286,000000	0,186264
1285,000000	0,185914
1284,000000	0,184692
1283,000000	0,183563
1282,000000	0,183429
1281,000000	0,183731
1280,000000	0,183385
1279,000000	0,182839
1278,000000	0,183791
1277,000000	0,186425
1276,000000	0,188461
1275,000000	0,187874
1274,000000	0,185453
1273,000000	0,183603
1272,000000	0,183222
1271,000000	0,183115
1270,000000	0,182180
1269,000000	0,180869
1268,000000	0,180253
1267,000000	0,180564
1266,000000	0,181178
1265,000000	0,181423
1264,000000	0,180979
1263,000000	0,179845
1262,000000	0,178360
1261,000000	0,177126
1260,000000	0,176612
1259,000000	0,176878
1258,000000	0,177717
1257,000000	0,178906
1256,000000	0,180175
1255,000000	0,181085
1254,000000	0,181380
1253,000000	0,181307
1252,000000	0,181247
1251,000000	0,181149
1250,000000	0,180763
1249,000000	0,180357
1248,000000	0,180604
1247,000000	0,181647
1246,000000	0,182713
1245,000000	0,183076
1244,000000	0,182912
1243,000000	0,182748
1242,000000	0,182603
1241,000000	0,182271
1240,000000	0,182018
1239,000000	0,182222
1238,000000	0,182481
1237,000000	0,181946
1236,000000	0,180558
1235,000000	0,179266
1234,000000	0,178819
1233,000000	0,178971
1232,000000	0,179087
1231,000000	0,178928
1230,000000	0,178624
1229,000000	0,178345
1228,000000	0,178087
1227,000000	0,177524
1226,000000	0,176186
1225,000000	0,174239
1224,000000	0,172831
1223,000000	0,172956
1222,000000	0,174080
1221,000000	0,174723
1220,000000	0,174473
1219,000000	0,174321
1218,000000	0,174832
1217,000000	0,175197
1216,000000	0,174700
1215,000000	0,173994
1214,000000	0,173985
1213,000000	0,174328
1212,000000	0,174108
1211,000000	0,173451
1210,000000	0,173297
1209,000000	0,173829
1208,000000	0,174195
1207,000000	0,173827
1206,000000	0,173177
1205,000000	0,172936
1204,000000	0,173163
1203,000000	0,173428
1202,000000	0,173344
1201,000000	0,172816
1200,000000	0,172025
1199,000000	0,171290
1198,000000	0,170789
1197,000000	0,170475
1196,000000	0,170331
1195,000000	0,170383
1194,000000	0,170322
1193,000000	0,169530
1192,000000	0,167904
1191,000000	0,166414
1190,000000	0,166190
1189,000000	0,167176
1188,000000	0,168202
1187,000000	0,168268
1186,000000	0,167331
1185,000000	0,165943
1184,000000	0,164636
1183,000000	0,163753
1182,000000	0,163341
1181,000000	0,163056
1180,000000	0,162591
1179,000000	0,162222
1178,000000	0,162504
1177,000000	0,163365
1176,000000	0,163930
1175,000000	0,163503
1174,000000	0,162355
1173,000000	0,161299
1172,000000	0,160764
1171,000000	0,160543
1170,000000	0,160305
1169,000000	0,159937
1168,000000	0,159422
1167,000000	0,158652
1166,000000	0,157627
1165,000000	0,156737
1164,000000	0,156532
1163,000000	0,157087
1162,000000	0,157748
1161,000000	0,157645
1160,000000	0,156508
1159,000000	0,154986
1158,000000	0,154158
1157,000000	0,154655
1156,000000	0,156067
1155,000000	0,157181
1154,000000	0,156968
1153,000000	0,155430
1152,000000	0,153380
1151,000000	0,151500
1150,000000	0,150008
1149,000000	0,149151
1148,000000	0,149312
1147,000000	0,150320
1146,000000	0,151265
1145,000000	0,151517
1144,000000	0,151549
1143,000000	0,152071
1142,000000	0,152773
1141,000000	0,152783
1140,000000	0,151952
1139,000000	0,150850
1138,000000	0,149743
1137,000000	0,148506
1136,000000	0,147467
1135,000000	0,147258
1134,000000	0,147628
1133,000000	0,147439
1132,000000	0,146144
1131,000000	0,144453
1130,000000	0,143307
1129,000000	0,142979
1128,000000	0,143403
1127,000000	0,144471
1126,000000	0,145494
1125,000000	0,145362
1124,000000	0,143828
1123,000000	0,141951
1122,000000	0,140767
1121,000000	0,140191
1120,000000	0,139696
1119,000000	0,139267
1118,000000	0,138978
1117,000000	0,138383
1116,000000	0,137225
1115,000000	0,136177
1114,000000	0,135948
1113,000000	0,136155
1112,000000	0,135899
1111,000000	0,135028
1110,000000	0,134170
1109,000000	0,133708
1108,000000	0,133509
1107,000000	0,133493
1106,000000	0,133636
1105,000000	0,133530
1104,000000	0,132708
1103,000000	0,131398
1102,000000	0,130318
1101,000000	0,129794
1100,000000	0,129624
1099,000000	0,129694
1098,000000	0,130093
1097,000000	0,130650
1096,000000	0,130952
1095,000000	0,130826
1094,000000	0,130374
1093,000000	0,129558
1092,000000	0,128309
1091,000000	0,127056
1090,000000	0,126534
1089,000000	0,126909
1088,000000	0,127598
1087,000000	0,128035
1086,000000	0,128172
1085,000000	0,128116
1084,000000	0,127782
1083,000000	0,127151
1082,000000	0,126434
1081,000000	0,125769
1080,000000	0,125096
1079,000000	0,124523
1078,000000	0,124431
1077,000000	0,124905
1076,000000	0,125336
1075,000000	0,124912
1074,000000	0,123460
1073,000000	0,121598
1072,000000	0,120114
1071,000000	0,119335
1070,000000	0,119053
1069,000000	0,118913
1068,000000	0,118812
1067,000000	0,118914
1066,000000	0,119279
1065,000000	0,119645
1064,000000	0,119696
1063,000000	0,119463
1062,000000	0,119284
1061,000000	0,119407
1060,000000	0,119751
1059,000000	0,119964
1058,000000	0,119678
1057,000000	0,118812
1056,000000	0,117726
1055,000000	0,116940
1054,000000	0,116563
1053,000000	0,116130
1052,000000	0,115221
1051,000000	0,114119
1050,000000	0,113556
1049,000000	0,113840
1048,000000	0,114513
1047,000000	0,114962
1046,000000	0,115088
1045,000000	0,115132
1044,000000	0,115105
1043,000000	0,114742
1042,000000	0,114085
1041,000000	0,113703
1040,000000	0,114127
1039,000000	0,115240
1038,000000	0,116427
1037,000000	0,117192
1036,000000	0,117372
1035,000000	0,116933
1034,000000	0,115935
1033,000000	0,114766
1032,000000	0,113945
1031,000000	0,113551
1030,000000	0,113241
1029,000000	0,112981
1028,000000	0,113257
1027,000000	0,114300
1026,000000	0,115614
1025,000000	0,116569
1024,000000	0,116990
1023,000000	0,116821
1022,000000	0,115854
1021,000000	0,114364
1020,000000	0,113434
1019,000000	0,113760
1018,000000	0,114512
1017,000000	0,114403
1016,000000	0,113542
1015,000000	0,113264
1014,000000	0,114194
1013,000000	0,115526
1012,000000	0,116277
1011,000000	0,116232
1010,000000	0,115459
1009,000000	0,113943
1008,000000	0,112287
1007,000000	0,111748
1006,000000	0,112812
1005,000000	0,114402
1004,000000	0,115247
1003,000000	0,115386
1002,000000	0,115724
1001,000000	0,116581
1000,000000	0,117331
999,000000	0,117242
998,000000	0,116186
997,000000	0,114720
996,000000	0,113781
995,000000	0,113963
994,000000	0,114786
993,000000	0,115118
992,000000	0,114575
991,000000	0,113972
990,000000	0,114058
989,000000	0,114477
988,000000	0,114459
987,000000	0,113961
986,000000	0,113470
985,000000	0,113171
984,000000	0,113015
983,000000	0,113128
982,000000	0,113463
981,000000	0,113429
980,000000	0,112636
979,000000	0,111592
978,000000	0,111064
977,000000	0,111045
976,000000	0,111071
975,000000	0,111253
974,000000	0,111986
973,000000	0,112801
972,000000	0,112602
971,000000	0,111284
970,000000	0,110058
969,000000	0,109830
968,000000	0,110042
967,000000	0,109652
966,000000	0,108614
965,000000	0,107756
964,000000	0,107597
963,000000	0,107827
962,000000	0,107877
961,000000	0,107515
960,000000	0,106850
959,000000	0,106107
958,000000	0,105550
957,000000	0,105315
956,000000	0,105189
955,000000	0,104717
954,000000	0,103700
953,000000	0,102551
952,000000	0,101938
951,000000	0,102005
950,000000	0,102195
949,000000	0,102023
948,000000	0,101773
947,000000	0,101989
946,000000	0,102491
945,000000	0,102490
944,000000	0,101738
943,000000	0,100917
942,000000	0,100575
941,000000	0,100366
940,000000	0,099781
939,000000	0,099057
938,000000	0,098764
937,000000	0,098891
936,000000	0,098928
935,000000	0,098644
934,000000	0,098269
933,000000	0,097963
932,000000	0,097605
931,000000	0,097094
930,000000	0,096481
929,000000	0,095963
928,000000	0,095860
927,000000	0,096308
926,000000	0,096896
925,000000	0,096948
924,000000	0,096423
923,000000	0,096009
922,000000	0,096042
921,000000	0,095872
920,000000	0,094885
919,000000	0,093663
918,000000	0,093242
917,000000	0,093603
916,000000	0,093745
915,000000	0,093228
914,000000	0,092691
913,000000	0,092711
912,000000	0,092961
911,000000	0,092788
910,000000	0,092067
909,000000	0,091141
908,000000	0,090311
907,000000	0,089681
906,000000	0,089214
905,000000	0,088784
904,000000	0,088338
903,000000	0,088025
902,000000	0,087929
901,000000	0,087762
900,000000	0,087232
899,000000	0,086658
898,000000	0,086672
897,000000	0,087176
896,000000	0,087123
895,000000	0,085708
894,000000	0,083486
893,000000	0,081961
892,000000	0,082026
891,000000	0,083142
890,000000	0,084001
889,000000	0,083795
888,000000	0,082831
887,000000	0,081931
886,000000	0,081430
885,000000	0,081055
884,000000	0,080624
883,000000	0,080430
882,000000	0,080702
881,000000	0,081124
880,000000	0,081279
879,000000	0,081195
878,000000	0,081014
877,000000	0,080469
876,000000	0,079265
875,000000	0,077781
874,000000	0,076782
873,000000	0,076375
872,000000	0,075950
871,000000	0,075202
870,000000	0,074644
869,000000	0,074884
868,000000	0,075822
867,000000	0,076777
866,000000	0,077108
865,000000	0,076639
864,000000	0,075823
863,000000	0,075500
862,000000	0,076097
861,000000	0,077112
860,000000	0,077754
859,000000	0,077921
858,000000	0,078005
857,000000	0,077961
856,000000	0,077298
855,000000	0,075999
854,000000	0,074763
853,000000	0,074101
852,000000	0,073818
851,000000	0,073575
850,000000	0,073392
849,000000	0,073356
848,000000	0,073310
847,000000	0,073246
846,000000	0,073484
845,000000	0,074025
844,000000	0,074278
843,000000	0,073807
842,000000	0,072959
841,000000	0,072349
840,000000	0,072065
839,000000	0,071817
838,000000	0,071546
837,000000	0,071390
836,000000	0,071296
835,000000	0,071157
834,000000	0,071056
833,000000	0,071036
832,000000	0,070862
831,000000	0,070299
830,000000	0,069470
829,000000	0,068650
828,000000	0,067890
827,000000	0,067145
826,000000	0,066583
825,000000	0,066421
824,000000	0,066590
823,000000	0,066951
822,000000	0,067611
821,000000	0,068560
820,000000	0,069350
819,000000	0,069584
818,000000	0,069444
817,000000	0,069238
816,000000	0,068803
815,000000	0,067995
814,000000	0,067431
813,000000	0,067833
812,000000	0,068821
811,000000	0,069210
810,000000	0,068617
809,000000	0,067977
808,000000	0,068135
807,000000	0,068611
806,000000	0,068278
805,000000	0,066943
804,000000	0,065619
803,000000	0,065277
802,000000	0,065838
801,000000	0,066440
800,000000	0,066378
799,000000	0,065731
798,000000	0,065135
797,000000	0,065026
796,000000	0,065229
795,000000	0,065337
794,000000	0,065309
793,000000	0,065390
792,000000	0,065573
791,000000	0,065598
790,000000	0,065488
789,000000	0,065555
788,000000	0,065800
787,000000	0,065798
786,000000	0,065418
785,000000	0,065192
784,000000	0,065622
783,000000	0,066452
782,000000	0,067044
781,000000	0,067253
780,000000	0,067325
779,000000	0,067257
778,000000	0,066898
777,000000	0,066256
776,000000	0,065473
775,000000	0,064834
774,000000	0,064717
773,000000	0,065273
772,000000	0,066082
771,000000	0,066458
770,000000	0,066280
769,000000	0,066041
768,000000	0,065957
767,000000	0,065702
766,000000	0,065250
765,000000	0,065174
764,000000	0,065584
763,000000	0,065558
762,000000	0,064429
761,000000	0,063046
760,000000	0,062754
759,000000	0,063557
758,000000	0,064339
757,000000	0,064625
756,000000	0,064963
755,000000	0,065544
754,000000	0,065682
753,000000	0,065032
752,000000	0,064319
751,000000	0,064283
750,000000	0,064661
749,000000	0,064813
748,000000	0,064701
747,000000	0,064531
746,000000	0,064051
745,000000	0,063028
744,000000	0,061945
743,000000	0,061562
742,000000	0,061925
741,000000	0,062382
740,000000	0,062459
739,000000	0,062221
738,000000	0,061834
737,000000	0,061300
736,000000	0,060690
735,000000	0,060213
734,000000	0,059940
733,000000	0,059724
732,000000	0,059509
731,000000	0,059490
730,000000	0,059840
729,000000	0,060403
728,000000	0,060768
727,000000	0,060602
726,000000	0,059892
725,000000	0,058879
724,000000	0,057798
723,000000	0,056791
722,000000	0,056038
721,000000	0,055763
720,000000	0,056039
719,000000	0,056680
718,000000	0,057426
717,000000	0,058091
716,000000	0,058407
715,000000	0,058044
714,000000	0,057119
713,000000	0,056429
712,000000	0,056658
711,000000	0,057587
710,000000	0,058460
709,000000	0,058888
708,000000	0,058916
707,000000	0,058497
706,000000	0,057495
705,000000	0,056251
704,000000	0,055528
703,000000	0,055463
702,000000	0,055296
701,000000	0,054479
700,000000	0,053312
699,000000	0,052221
698,000000	0,051169
697,000000	0,050139
696,000000	0,049575
695,000000	0,049821
694,000000	0,050500
693,000000	0,050874
692,000000	0,050490
691,000000	0,049319
690,000000	0,047763
689,000000	0,046687
688,000000	0,046807
687,000000	0,047782
686,000000	0,048413
685,000000	0,047948
684,000000	0,046764
683,000000	0,045636
682,000000	0,044827
681,000000	0,044270
680,000000	0,044024
679,000000	0,044018
678,000000	0,044073
677,000000	0,044326
676,000000	0,045029
675,000000	0,045936
674,000000	0,046496
673,000000	0,046550
672,000000	0,045889
671,000000	0,043122
670,000000	0,036888
669,000000	0,029156
668,000000	0,025246
667,000000	0,028464
666,000000	0,035894
665,000000	0,041538
664,000000	0,042950
663,000000	0,042553
662,000000	0,042913
661,000000	0,043640
660,000000	0,043396
659,000000	0,042380
658,000000	0,041576
657,000000	0,041114
656,000000	0,040774
655,000000	0,040890
654,000000	0,041616
653,000000	0,042151
652,000000	0,041738
651,000000	0,040725
650,000000	0,039826
649,000000	0,039177
648,000000	0,038730
647,000000	0,038803
646,000000	0,039423
645,000000	0,039770
644,000000	0,039134
643,000000	0,038005
642,000000	0,037395
641,000000	0,037651
640,000000	0,038494
639,000000	0,039527
638,000000	0,040275
637,000000	0,040207
636,000000	0,039280
635,000000	0,038232
634,000000	0,037731
633,000000	0,037641
632,000000	0,037676
631,000000	0,038021
630,000000	0,038764
629,000000	0,039210
628,000000	0,038482
627,000000	0,036834
626,000000	0,035541
625,000000	0,035445
624,000000	0,036126
623,000000	0,036660
622,000000	0,036586
621,000000	0,036007
620,000000	0,035284
619,000000	0,034737
618,000000	0,034507
617,000000	0,034542
616,000000	0,034695
615,000000	0,034854
614,000000	0,034950
613,000000	0,034962
612,000000	0,034998
611,000000	0,035202
610,000000	0,035453
609,000000	0,035348
608,000000	0,034604
607,000000	0,033481
606,000000	0,032601
605,000000	0,032363
604,000000	0,032654
603,000000	0,032934
602,000000	0,032635
601,000000	0,031723
600,000000	0,030959
599,000000	0,031210
598,000000	0,032399
597,000000	0,033437
596,000000	0,033250
595,000000	0,031703
594,000000	0,029635
593,000000	0,028110
592,000000	0,027662
591,000000	0,028036
590,000000	0,028495
589,000000	0,028534
588,000000	0,028300
587,000000	0,028176
586,000000	0,028160
585,000000	0,028029
584,000000	0,027827
583,000000	0,027745
582,000000	0,027650
581,000000	0,027248
580,000000	0,026635
579,000000	0,026138
578,000000	0,025710
577,000000	0,025136
576,000000	0,024728
575,000000	0,024963
574,000000	0,025495
573,000000	0,025460
572,000000	0,024908
571,000000	0,024828
570,000000	0,025498
569,000000	0,025925
568,000000	0,025419
567,000000	0,024723
566,000000	0,024735
565,000000	0,025151
564,000000	0,025112
563,000000	0,024577
562,000000	0,024186
561,000000	0,024110
560,000000	0,024074
559,000000	0,024200
558,000000	0,024856
557,000000	0,025767
556,000000	0,026220
555,000000	0,025970
554,000000	0,025332
553,000000	0,024541
552,000000	0,023701
551,000000	0,023154
550,000000	0,023192
549,000000	0,023451
548,000000	0,023313
547,000000	0,022756
546,000000	0,022307
545,000000	0,022376
544,000000	0,022818
543,000000	0,023253
542,000000	0,023479
541,000000	0,023349
540,000000	0,022810
539,000000	0,022140
538,000000	0,021719
537,000000	0,021671
536,000000	0,022072
535,000000	0,022891
534,000000	0,023678
533,000000	0,023685
532,000000	0,022662
531,000000	0,021371
530,000000	0,020641
529,000000	0,020233
528,000000	0,019372
527,000000	0,018099
526,000000	0,017328
525,000000	0,017623
524,000000	0,018688
523,000000	0,019904
522,000000	0,020764
521,000000	0,020894
520,000000	0,020242
519,000000	0,019375
518,000000	0,019066
517,000000	0,019452
516,000000	0,019951
515,000000	0,020029
514,000000	0,019619
513,000000	0,018894
512,000000	0,018125
511,000000	0,017792
510,000000	0,018118
509,000000	0,018750
508,000000	0,019218
507,000000	0,019399
506,000000	0,019365
505,000000	0,018943
504,000000	0,017979
503,000000	0,016849
502,000000	0,016268
501,000000	0,016384
500,000000	0,016645
499,000000	0,016693
498,000000	0,016734
497,000000	0,017095
496,000000	0,017688
495,000000	0,018130
494,000000	0,018205
493,000000	0,017804
492,000000	0,016958
491,000000	0,016114
490,000000	0,015807
489,000000	0,015837
488,000000	0,015509
487,000000	0,014829
486,000000	0,014555
485,000000	0,015052
484,000000	0,015958
483,000000	0,016565
482,000000	0,016414
481,000000	0,015589
480,000000	0,014494
479,000000	0,013707
478,000000	0,013567
477,000000	0,013595
476,000000	0,012985
475,000000	0,011851
474,000000	0,011391
473,000000	0,012451
472,000000	0,014112
471,000000	0,014757
470,000000	0,014243
469,000000	0,013735
468,000000	0,013720
467,000000	0,013893
466,000000	0,013907
465,000000	0,013477
464,000000	0,012556
463,000000	0,011645
462,000000	0,011605
461,000000	0,012436
460,000000	0,013066
459,000000	0,012531
458,000000	0,011166
457,000000	0,010164
456,000000	0,010121
455,000000	0,010648
454,000000	0,011091
453,000000	0,011086
452,000000	0,010556
451,000000	0,009705
450,000000	0,008971
449,000000	0,008667
448,000000	0,008652
447,000000	0,008507
446,000000	0,008207
445,000000	0,008192
444,000000	0,008771
443,000000	0,009739
442,000000	0,010476
441,000000	0,010423
440,000000	0,009405
439,000000	0,007811
438,000000	0,006524
437,000000	0,006175
436,000000	0,006638
435,000000	0,007362
434,000000	0,008145
433,000000	0,008948
432,000000	0,009531
431,000000	0,009612
430,000000	0,009154
429,000000	0,008298
428,000000	0,007280
427,000000	0,006414
426,000000	0,005882
425,000000	0,005689
424,000000	0,005591
423,000000	0,005253
422,000000	0,004618
421,000000	0,004002
420,000000	0,003900
419,000000	0,004419
418,000000	0,005205
417,000000	0,005994
416,000000	0,006591
415,000000	0,006478
414,000000	0,005722
413,000000	0,004814
412,000000	0,003966
411,000000	0,003125
410,000000	0,002390
409,000000	0,002899
408,000000	0,003929
407,000000	0,004576
406,000000	0,005053
405,000000	0,005533
404,000000	0,005691
403,000000	0,005372
402,000000	0,005023
401,000000	0,005002
400,000000	0,004936
399,000000	0,004257
398,000000	0,003224
397,000000	0,002615
396,000000	0,002499
395,000000	0,002103
394,000000	0,001274
393,000000	0,002140
392,000000	0,003496
391,000000	0,003904
390,000000	0,003529
389,000000	0,003168
388,000000	0,003224
387,000000	0,003024
386,000000	0,002005
385,000000	0,001077
384,000000	0,001303
383,000000	0,001205
382,000000	0,000987
381,000000	0,001187
380,000000	0,000512
379,000000	0,001574
378,000000	0,001672
377,000000	0,000859
376,000000	0,001341
375,000000	0,001078
374,000000	0,000394
373,000000	0,000221
372,000000	0,000543
371,000000	0,001386
370,000000	0,003169
369,000000	0,004669
368,000000	0,004605
367,000000	0,003128
366,000000	0,002405
365,000000	0,002082
364,000000	0,001775
363,000000	0,002367
362,000000	0,002009
361,000000	0,002048
360,000000	0,002127
359,000000	0,001278
358,000000	0,000804
357,000000	0,001874
356,000000	0,003280
355,000000	0,003937
354,000000	0,003824
353,000000	0,003389
352,000000	0,002624
351,000000	0,001752
350,000000	0,001436
349,000000	0,002119
348,000000	0,002957
347,000000	0,002479
346,000000	0,001027
345,000000	0,000290
344,000000	0,001025
343,000000	0,002115
342,000000	0,002355
341,000000	0,002068
340,000000	0,002291
339,000000	0,002813
338,000000	0,002942
337,000000	0,002143
336,000000	0,000861
335,000000	0,001105
334,000000	0,001272
333,000000	0,001546
332,000000	0,002529
331,000000	0,003252
330,000000	0,003528
329,000000	0,003490
328,000000	0,002954
327,000000	0,001967
326,000000	0,000941
325,000000	0,000523
324,000000	0,001863
323,000000	0,002418
322,000000	0,001668
321,000000	0,000408
320,000000	0,000892
319,000000	0,001116
318,000000	0,001017
317,000000	0,000952
316,000000	0,000951
315,000000	0,001322
314,000000	0,002682
313,000000	0,003534
312,000000	0,003205
311,000000	0,002498
310,000000	0,001757
309,000000	0,001412
308,000000	0,001739
307,000000	0,001483
306,000000	0,000523
305,000000	0,000384
304,000000	0,000585
303,000000	0,000790
302,000000	0,000936
301,000000	0,000875
300,000000	0,000993
299,000000	0,000767
298,000000	0,000501
297,000000	0,000865
296,000000	0,001245
295,000000	0,001435
294,000000	0,001149
293,000000	0,000870
292,000000	0,001024
291,000000	0,000693
290,000000	0,000083
289,000000	0,000875
288,000000	0,001732
287,000000	0,002117
286,000000	0,002047
285,000000	0,001581
284,000000	0,000940
283,000000	0,000548
282,000000	0,000852
281,000000	0,001805
280,000000	0,002794
279,000000	0,002898
278,000000	0,002567
277,000000	0,002596
276,000000	0,002005
275,000000	0,000784
274,000000	0,001059
273,000000	0,001448
272,000000	0,001296
271,000000	0,001011
270,000000	0,000340
269,000000	0,000667
268,000000	0,001395
267,000000	0,001706
266,000000	0,002386
265,000000	0,002553
264,000000	0,001655
263,000000	0,000750
262,000000	0,001012
261,000000	0,001847
260,000000	0,001926
259,000000	0,001519
258,000000	0,002133
257,000000	0,002288
256,000000	0,001583
255,000000	0,001628
254,000000	0,002201
253,000000	0,002046
252,000000	0,001441
251,000000	0,001553
250,000000	0,002001
249,000000	0,001899
248,000000	0,001598
247,000000	0,001386
246,000000	0,001062
245,000000	0,000644
244,000000	0,000054
243,000000	0,000502
242,000000	0,000611
241,000000	0,000484
240,000000	0,000237
239,000000	0,000654
238,000000	0,001294
237,000000	0,001459
236,000000	0,001054
235,000000	0,000532
234,000000	0,000208
233,000000	0,000951
232,000000	0,002133
231,000000	0,003117
230,000000	0,003430
229,000000	0,002997
228,000000	0,002096
227,000000	0,001242
226,000000	0,000285
225,000000	0,000692
224,000000	0,000975
223,000000	0,000854
222,000000	0,001402
221,000000	0,001511
220,000000	0,001016
219,000000	0,001002
218,000000	0,001365
217,000000	0,001012
216,000000	0,001080
215,000000	0,001711
214,000000	0,001354
213,000000	0,000975
212,000000	0,001689
211,000000	0,001804
210,000000	0,001267
209,000000	0,000885
208,000000	0,000767
207,000000	0,001023
206,000000	0,001654
205,000000	0,001860
204,000000	0,001628
203,000000	0,001495
202,000000	0,001386
201,000000	0,000889
200,000000	0,000207
