PE IR       SUBTECH     SPECTRUM    ASCII       PEDS        4.00        
   -1
AlO2 Reflectivity full range.ASC
25/04/22
10:32:46.00
25/04/22
10:32:46.00
Praktikum
Sample 025 By Praktikum date Dienstag, April 22 2025
200,000000
#HDR
-1
-1
#GR
cm-1
EGY
1.0
0.0
4000,000000
-1,000000
3801
8
3,152205
0,000321
#DATA
4000,000000	0,816273
3999,000000	0,816299
3998,000000	0,816536
3997,000000	0,817149
3996,000000	0,817914
3995,000000	0,818204
3994,000000	0,817505
3993,000000	0,816170
3992,000000	0,815425
3991,000000	0,816264
3990,000000	0,818336
3989,000000	0,820163
3988,000000	0,820503
3987,000000	0,819425
3986,000000	0,817995
3985,000000	0,817217
3984,000000	0,817443
3983,000000	0,818496
3982,000000	0,820000
3981,000000	0,821475
3980,000000	0,822396
3979,000000	0,822359
3978,000000	0,821241
3977,000000	0,819244
3976,000000	0,816860
3975,000000	0,814805
3974,000000	0,813752
3973,000000	0,813993
3972,000000	0,815310
3971,000000	0,817251
3970,000000	0,819552
3969,000000	0,822158
3968,000000	0,824805
3967,000000	0,826713
3966,000000	0,826912
3965,000000	0,825073
3964,000000	0,822015
3963,000000	0,819258
3962,000000	0,817926
3961,000000	0,818107
3960,000000	0,819215
3959,000000	0,820752
3958,000000	0,822520
3957,000000	0,824180
3956,000000	0,824903
3955,000000	0,823681
3954,000000	0,819951
3953,000000	0,813978
3952,000000	0,806880
3951,000000	0,800489
3950,000000	0,796798
3949,000000	0,796808
3948,000000	0,799366
3947,000000	0,801398
3946,000000	0,800270
3945,000000	0,796408
3944,000000	0,793432
3943,000000	0,795088
3942,000000	0,801805
3941,000000	0,810572
3940,000000	0,817999
3939,000000	0,822691
3938,000000	0,824519
3937,000000	0,822647
3936,000000	0,815680
3935,000000	0,804048
3934,000000	0,791345
3933,000000	0,782640
3932,000000	0,781175
3931,000000	0,786375
3930,000000	0,794225
3929,000000	0,799467
3928,000000	0,798860
3927,000000	0,793535
3926,000000	0,788160
3925,000000	0,787030
3924,000000	0,790146
3923,000000	0,793273
3922,000000	0,791811
3921,000000	0,784667
3920,000000	0,775086
3919,000000	0,768471
3918,000000	0,769376
3917,000000	0,779063
3916,000000	0,794871
3915,000000	0,811882
3914,000000	0,825817
3913,000000	0,835120
3912,000000	0,840306
3911,000000	0,841509
3910,000000	0,836716
3909,000000	0,822535
3908,000000	0,797028
3907,000000	0,762493
3906,000000	0,725735
3905,000000	0,694823
3904,000000	0,674639
3903,000000	0,665299
3902,000000	0,664872
3901,000000	0,672997
3900,000000	0,691174
3899,000000	0,718938
3898,000000	0,750677
3897,000000	0,776722
3896,000000	0,788363
3895,000000	0,783193
3894,000000	0,767316
3893,000000	0,752582
3892,000000	0,748990
3891,000000	0,756629
3890,000000	0,764568
3889,000000	0,760637
3888,000000	0,743409
3887,000000	0,724323
3886,000000	0,716201
3885,000000	0,720314
3884,000000	0,726359
3883,000000	0,725212
3882,000000	0,719861
3881,000000	0,722021
3880,000000	0,738219
3879,000000	0,761226
3878,000000	0,776200
3877,000000	0,774551
3876,000000	0,760342
3875,000000	0,742749
3874,000000	0,725396
3873,000000	0,705812
3872,000000	0,684669
3871,000000	0,670554
3870,000000	0,671784
3869,000000	0,685372
3868,000000	0,698311
3867,000000	0,700715
3866,000000	0,695428
3865,000000	0,693710
3864,000000	0,703488
3863,000000	0,723710
3862,000000	0,747436
3861,000000	0,767026
3860,000000	0,775366
3859,000000	0,765205
3858,000000	0,731037
3857,000000	0,674258
3856,000000	0,607805
3855,000000	0,554159
3854,000000	0,534558
3853,000000	0,556193
3852,000000	0,608297
3851,000000	0,670367
3850,000000	0,724869
3849,000000	0,763136
3848,000000	0,783255
3847,000000	0,786609
3846,000000	0,777299
3845,000000	0,761269
3844,000000	0,742976
3843,000000	0,722758
3842,000000	0,698710
3841,000000	0,671454
3840,000000	0,646608
3839,000000	0,632124
3838,000000	0,633077
3837,000000	0,647991
3836,000000	0,669766
3835,000000	0,690836
3834,000000	0,708539
3833,000000	0,725574
3832,000000	0,744841
3831,000000	0,764396
3830,000000	0,778539
3829,000000	0,784191
3828,000000	0,784260
3827,000000	0,782625
3826,000000	0,776548
3825,000000	0,757536
3824,000000	0,722626
3823,000000	0,683384
3822,000000	0,658933
3821,000000	0,658191
3820,000000	0,670766
3819,000000	0,679045
3818,000000	0,677828
3817,000000	0,679411
3816,000000	0,698885
3815,000000	0,737510
3814,000000	0,782044
3813,000000	0,816318
3812,000000	0,830749
3811,000000	0,823249
3810,000000	0,798292
3809,000000	0,767336
3808,000000	0,744981
3807,000000	0,738007
3806,000000	0,737614
3805,000000	0,727399
3804,000000	0,701637
3803,000000	0,673806
3802,000000	0,664076
3801,000000	0,679198
3800,000000	0,707382
3799,000000	0,732236
3798,000000	0,748882
3797,000000	0,764436
3796,000000	0,786429
3795,000000	0,813939
3794,000000	0,839847
3793,000000	0,858297
3792,000000	0,868431
3791,000000	0,872571
3790,000000	0,872807
3789,000000	0,869761
3788,000000	0,863761
3787,000000	0,856651
3786,000000	0,851360
3785,000000	0,849009
3784,000000	0,846413
3783,000000	0,838381
3782,000000	0,823939
3781,000000	0,809746
3780,000000	0,805690
3779,000000	0,816148
3778,000000	0,836146
3777,000000	0,855899
3776,000000	0,867774
3775,000000	0,868494
3774,000000	0,857248
3773,000000	0,835570
3772,000000	0,809769
3771,000000	0,789677
3770,000000	0,781458
3769,000000	0,782547
3768,000000	0,786108
3767,000000	0,789856
3766,000000	0,797008
3765,000000	0,808218
3764,000000	0,816297
3763,000000	0,812414
3762,000000	0,796046
3761,000000	0,776535
3760,000000	0,764882
3759,000000	0,764993
3758,000000	0,771330
3757,000000	0,772398
3756,000000	0,756963
3755,000000	0,720808
3754,000000	0,670245
3753,000000	0,619542
3752,000000	0,583977
3751,000000	0,572272
3750,000000	0,581251
3749,000000	0,595644
3748,000000	0,597181
3747,000000	0,580198
3746,000000	0,559582
3745,000000	0,559402
3744,000000	0,590431
3743,000000	0,640155
3742,000000	0,684244
3741,000000	0,704818
3740,000000	0,698057
3739,000000	0,670403
3738,000000	0,633445
3737,000000	0,600659
3736,000000	0,582630
3735,000000	0,582648
3734,000000	0,598047
3733,000000	0,625119
3732,000000	0,659918
3731,000000	0,694983
3730,000000	0,719964
3729,000000	0,729001
3728,000000	0,725905
3727,000000	0,719924
3726,000000	0,717280
3725,000000	0,718322
3724,000000	0,721754
3723,000000	0,728499
3722,000000	0,740411
3721,000000	0,757236
3720,000000	0,776231
3719,000000	0,793810
3718,000000	0,805751
3717,000000	0,806159
3716,000000	0,789089
3715,000000	0,753982
3714,000000	0,709688
3713,000000	0,671516
3712,000000	0,652793
3711,000000	0,657830
3710,000000	0,681882
3709,000000	0,715546
3708,000000	0,748668
3707,000000	0,772457
3706,000000	0,781116
3705,000000	0,774653
3704,000000	0,760148
3703,000000	0,748876
3702,000000	0,749685
3701,000000	0,762930
3700,000000	0,780944
3699,000000	0,794873
3698,000000	0,801157
3697,000000	0,801047
3696,000000	0,794965
3695,000000	0,779671
3694,000000	0,751789
3693,000000	0,712766
3692,000000	0,670040
3691,000000	0,634992
3690,000000	0,619325
3689,000000	0,630123
3688,000000	0,664596
3687,000000	0,709852
3686,000000	0,750470
3685,000000	0,777093
3684,000000	0,788402
3683,000000	0,787065
3682,000000	0,775664
3681,000000	0,754700
3680,000000	0,722000
3679,000000	0,675571
3678,000000	0,621389
3677,000000	0,577022
3676,000000	0,561229
3675,000000	0,575463
3674,000000	0,599455
3673,000000	0,610052
3672,000000	0,603714
3671,000000	0,598409
3670,000000	0,613860
3669,000000	0,653114
3668,000000	0,702892
3667,000000	0,746951
3666,000000	0,776727
3665,000000	0,792533
3664,000000	0,799013
3663,000000	0,800572
3662,000000	0,798244
3661,000000	0,789088
3660,000000	0,769559
3659,000000	0,741286
3658,000000	0,713779
3657,000000	0,698544
3656,000000	0,697743
3655,000000	0,698885
3654,000000	0,683253
3653,000000	0,642521
3652,000000	0,586974
3651,000000	0,538244
3650,000000	0,514899
3649,000000	0,523681
3648,000000	0,560265
3647,000000	0,613224
3646,000000	0,667805
3645,000000	0,711214
3644,000000	0,738281
3643,000000	0,751892
3642,000000	0,757771
3641,000000	0,759486
3640,000000	0,758227
3639,000000	0,754657
3638,000000	0,748873
3637,000000	0,740228
3636,000000	0,728887
3635,000000	0,715813
3634,000000	0,698765
3633,000000	0,670744
3632,000000	0,627583
3631,000000	0,578844
3630,000000	0,546539
3629,000000	0,549085
3628,000000	0,585781
3627,000000	0,638122
3626,000000	0,684335
3625,000000	0,711331
3624,000000	0,715420
3623,000000	0,698760
3622,000000	0,668704
3621,000000	0,638024
3620,000000	0,620240
3619,000000	0,621493
3618,000000	0,636287
3617,000000	0,652174
3616,000000	0,659656
3615,000000	0,658281
3614,000000	0,653891
3613,000000	0,651027
3612,000000	0,649010
3611,000000	0,645578
3610,000000	0,642826
3609,000000	0,647340
3608,000000	0,663676
3607,000000	0,688786
3606,000000	0,713390
3605,000000	0,728692
3604,000000	0,731779
3603,000000	0,726025
3602,000000	0,717728
3601,000000	0,711847
3600,000000	0,709250
3599,000000	0,707231
3598,000000	0,702958
3597,000000	0,696943
3596,000000	0,693334
3595,000000	0,696303
3594,000000	0,705352
3593,000000	0,713599
3592,000000	0,711463
3591,000000	0,693989
3590,000000	0,666602
3589,000000	0,643331
3588,000000	0,637740
3587,000000	0,653711
3586,000000	0,683821
3585,000000	0,715688
3584,000000	0,739957
3583,000000	0,753977
3582,000000	0,760214
3581,000000	0,762559
3580,000000	0,763716
3579,000000	0,764736
3578,000000	0,765825
3577,000000	0,767192
3576,000000	0,769232
3575,000000	0,771860
3574,000000	0,773398
3573,000000	0,769803
3572,000000	0,755740
3571,000000	0,728379
3570,000000	0,691900
3569,000000	0,658070
3568,000000	0,640305
3567,000000	0,645271
3566,000000	0,668775
3565,000000	0,699376
3564,000000	0,725996
3563,000000	0,743648
3562,000000	0,753734
3561,000000	0,760507
3560,000000	0,767119
3559,000000	0,773921
3558,000000	0,779100
3557,000000	0,780317
3556,000000	0,776434
3555,000000	0,768740
3554,000000	0,760903
3553,000000	0,756808
3552,000000	0,757279
3551,000000	0,758868
3550,000000	0,756661
3549,000000	0,748951
3548,000000	0,739117
3547,000000	0,733030
3546,000000	0,734645
3545,000000	0,743710
3544,000000	0,756706
3543,000000	0,769386
3542,000000	0,778794
3541,000000	0,783805
3540,000000	0,784700
3539,000000	0,782740
3538,000000	0,780061
3537,000000	0,779021
3536,000000	0,780655
3535,000000	0,783595
3534,000000	0,784948
3533,000000	0,782573
3532,000000	0,776459
3531,000000	0,768306
3530,000000	0,760358
3529,000000	0,754592
3528,000000	0,751998
3527,000000	0,751997
3526,000000	0,753066
3525,000000	0,754470
3524,000000	0,757168
3523,000000	0,762405
3522,000000	0,769700
3521,000000	0,776864
3520,000000	0,782063
3519,000000	0,785239
3518,000000	0,787430
3517,000000	0,789220
3516,000000	0,790218
3515,000000	0,789590
3514,000000	0,786685
3513,000000	0,781488
3512,000000	0,775184
3511,000000	0,770251
3510,000000	0,769077
3509,000000	0,771717
3508,000000	0,775079
3507,000000	0,775117
3506,000000	0,770342
3505,000000	0,763321
3504,000000	0,758686
3503,000000	0,759563
3502,000000	0,765521
3501,000000	0,773276
3500,000000	0,779218
3499,000000	0,781677
3498,000000	0,781603
3497,000000	0,781347
3496,000000	0,782621
3495,000000	0,785371
3494,000000	0,788241
3493,000000	0,789822
3492,000000	0,789422
3491,000000	0,787206
3490,000000	0,784135
3489,000000	0,781660
3488,000000	0,780780
3487,000000	0,781128
3486,000000	0,781252
3485,000000	0,780071
3484,000000	0,778003
3483,000000	0,776651
3482,000000	0,777467
3481,000000	0,780675
3480,000000	0,785062
3479,000000	0,788637
3478,000000	0,789897
3477,000000	0,788897
3476,000000	0,787185
3475,000000	0,786489
3474,000000	0,787395
3473,000000	0,789189
3472,000000	0,790709
3471,000000	0,791212
3470,000000	0,790648
3469,000000	0,789518
3468,000000	0,788486
3467,000000	0,787913
3466,000000	0,787663
3465,000000	0,787444
3464,000000	0,787284
3463,000000	0,787553
3462,000000	0,788488
3461,000000	0,789888
3460,000000	0,791344
3459,000000	0,792647
3458,000000	0,793833
3457,000000	0,794912
3456,000000	0,795769
3455,000000	0,796365
3454,000000	0,796805
3453,000000	0,796927
3452,000000	0,795883
3451,000000	0,792649
3450,000000	0,787339
3449,000000	0,781841
3448,000000	0,778673
3447,000000	0,778928
3446,000000	0,781551
3445,000000	0,784665
3444,000000	0,787280
3443,000000	0,789544
3442,000000	0,791772
3441,000000	0,793827
3440,000000	0,795507
3439,000000	0,797009
3438,000000	0,798678
3437,000000	0,800462
3436,000000	0,801852
3435,000000	0,802332
3434,000000	0,801830
3433,000000	0,800809
3432,000000	0,800001
3431,000000	0,799974
3430,000000	0,800790
3429,000000	0,802040
3428,000000	0,803206
3427,000000	0,803875
3426,000000	0,803660
3425,000000	0,802202
3424,000000	0,799603
3423,000000	0,796856
3422,000000	0,795464
3421,000000	0,796338
3420,000000	0,799042
3419,000000	0,802200
3418,000000	0,804632
3417,000000	0,806064
3416,000000	0,806890
3415,000000	0,807494
3414,000000	0,807955
3413,000000	0,808251
3412,000000	0,808502
3411,000000	0,808844
3410,000000	0,809180
3409,000000	0,809239
3408,000000	0,808983
3407,000000	0,808801
3406,000000	0,809196
3405,000000	0,810301
3404,000000	0,811766
3403,000000	0,813009
3402,000000	0,813494
3401,000000	0,812919
3400,000000	0,811453
3399,000000	0,809829
3398,000000	0,808911
3397,000000	0,808951
3396,000000	0,809428
3395,000000	0,809795
3394,000000	0,810278
3393,000000	0,811682
3392,000000	0,814399
3391,000000	0,817769
3390,000000	0,820479
3389,000000	0,821520
3388,000000	0,820829
3387,000000	0,819220
3386,000000	0,817791
3385,000000	0,817260
3384,000000	0,817690
3383,000000	0,818714
3382,000000	0,819893
3381,000000	0,820844
3380,000000	0,821287
3379,000000	0,821268
3378,000000	0,821322
3377,000000	0,822108
3376,000000	0,823715
3375,000000	0,825437
3374,000000	0,826373
3373,000000	0,826166
3372,000000	0,825100
3371,000000	0,823659
3370,000000	0,822242
3369,000000	0,821214
3368,000000	0,820926
3367,000000	0,821443
3366,000000	0,822333
3365,000000	0,822901
3364,000000	0,822748
3363,000000	0,822125
3362,000000	0,821695
3361,000000	0,821931
3360,000000	0,822714
3359,000000	0,823522
3358,000000	0,823970
3357,000000	0,824150
3356,000000	0,824468
3355,000000	0,825204
3354,000000	0,826258
3353,000000	0,827276
3352,000000	0,828000
3351,000000	0,828475
3350,000000	0,828914
3349,000000	0,829377
3348,000000	0,829649
3347,000000	0,829472
3346,000000	0,828875
3345,000000	0,828220
3344,000000	0,827923
3343,000000	0,828123
3342,000000	0,828570
3341,000000	0,828836
3340,000000	0,828691
3339,000000	0,828348
3338,000000	0,828291
3337,000000	0,828829
3336,000000	0,829841
3335,000000	0,830982
3334,000000	0,832018
3333,000000	0,832881
3332,000000	0,833506
3331,000000	0,833791
3330,000000	0,833742
3329,000000	0,833494
3328,000000	0,833137
3327,000000	0,832650
3326,000000	0,832109
3325,000000	0,831909
3324,000000	0,832575
3323,000000	0,834221
3322,000000	0,836192
3321,000000	0,837414
3320,000000	0,837257
3319,000000	0,836074
3318,000000	0,834773
3317,000000	0,833899
3316,000000	0,833306
3315,000000	0,832671
3314,000000	0,832045
3313,000000	0,831709
3312,000000	0,831741
3311,000000	0,831996
3310,000000	0,832427
3309,000000	0,833089
3308,000000	0,833862
3307,000000	0,834430
3306,000000	0,834662
3305,000000	0,834846
3304,000000	0,835394
3303,000000	0,836428
3302,000000	0,837684
3301,000000	0,838775
3300,000000	0,839464
3299,000000	0,839766
3298,000000	0,839802
3297,000000	0,839602
3296,000000	0,839098
3295,000000	0,838340
3294,000000	0,837625
3293,000000	0,837313
3292,000000	0,837586
3291,000000	0,838430
3290,000000	0,839718
3289,000000	0,841127
3288,000000	0,842110
3287,000000	0,842233
3286,000000	0,841596
3285,000000	0,840785
3284,000000	0,840379
3283,000000	0,840585
3282,000000	0,841242
3281,000000	0,841938
3280,000000	0,842148
3279,000000	0,841541
3278,000000	0,840273
3277,000000	0,838864
3276,000000	0,837800
3275,000000	0,837370
3274,000000	0,837798
3273,000000	0,839152
3272,000000	0,841042
3271,000000	0,842743
3270,000000	0,843875
3269,000000	0,844739
3268,000000	0,845762
3267,000000	0,846786
3266,000000	0,847208
3265,000000	0,846697
3264,000000	0,845463
3263,000000	0,843866
3262,000000	0,842135
3261,000000	0,840614
3260,000000	0,839872
3259,000000	0,840192
3258,000000	0,841069
3257,000000	0,841650
3256,000000	0,841763
3255,000000	0,842165
3254,000000	0,843547
3253,000000	0,845527
3252,000000	0,847021
3251,000000	0,847453
3250,000000	0,847162
3249,000000	0,846641
3248,000000	0,845918
3247,000000	0,844992
3246,000000	0,844411
3245,000000	0,844903
3244,000000	0,846547
3243,000000	0,848684
3242,000000	0,850600
3241,000000	0,851923
3240,000000	0,852504
3239,000000	0,852350
3238,000000	0,851741
3237,000000	0,851050
3236,000000	0,850380
3235,000000	0,849661
3234,000000	0,849097
3233,000000	0,849071
3232,000000	0,849488
3231,000000	0,849686
3230,000000	0,849313
3229,000000	0,848943
3228,000000	0,849423
3227,000000	0,850864
3226,000000	0,852574
3225,000000	0,853809
3224,000000	0,854197
3223,000000	0,853648
3222,000000	0,852454
3221,000000	0,851525
3220,000000	0,851961
3219,000000	0,853943
3218,000000	0,856251
3217,000000	0,857291
3216,000000	0,856606
3215,000000	0,855215
3214,000000	0,854454
3213,000000	0,854662
3212,000000	0,855112
3211,000000	0,855045
3210,000000	0,854580
3209,000000	0,854554
3208,000000	0,855580
3207,000000	0,857350
3206,000000	0,858879
3205,000000	0,859399
3204,000000	0,858961
3203,000000	0,858204
3202,000000	0,857632
3201,000000	0,857299
3200,000000	0,857184
3199,000000	0,857561
3198,000000	0,858692
3197,000000	0,860256
3196,000000	0,861472
3195,000000	0,861910
3194,000000	0,861859
3193,000000	0,861746
3192,000000	0,861532
3191,000000	0,860984
3190,000000	0,860337
3189,000000	0,860219
3188,000000	0,860922
3187,000000	0,862102
3186,000000	0,863260
3185,000000	0,864201
3184,000000	0,864855
3183,000000	0,864913
3182,000000	0,863987
3181,000000	0,862152
3180,000000	0,860204
3179,000000	0,859291
3178,000000	0,860146
3177,000000	0,862546
3176,000000	0,865477
3175,000000	0,867871
3174,000000	0,869217
3173,000000	0,869512
3172,000000	0,868934
3171,000000	0,867811
3170,000000	0,866793
3169,000000	0,866619
3168,000000	0,867506
3167,000000	0,868928
3166,000000	0,870109
3165,000000	0,870682
3164,000000	0,870826
3163,000000	0,870891
3162,000000	0,871007
3161,000000	0,871033
3160,000000	0,870839
3159,000000	0,870612
3158,000000	0,870722
3157,000000	0,871214
3156,000000	0,871548
3155,000000	0,871110
3154,000000	0,869919
3153,000000	0,868664
3152,000000	0,868020
3151,000000	0,868164
3150,000000	0,868892
3149,000000	0,869955
3148,000000	0,871164
3147,000000	0,872382
3146,000000	0,873544
3145,000000	0,874536
3144,000000	0,875047
3143,000000	0,874729
3142,000000	0,873636
3141,000000	0,872391
3140,000000	0,871776
3139,000000	0,872170
3138,000000	0,873302
3137,000000	0,874469
3136,000000	0,875013
3135,000000	0,874867
3134,000000	0,874647
3133,000000	0,875031
3132,000000	0,875977
3131,000000	0,876754
3130,000000	0,876795
3129,000000	0,876312
3128,000000	0,875957
3127,000000	0,876091
3126,000000	0,876587
3125,000000	0,877199
3124,000000	0,877839
3123,000000	0,878406
3122,000000	0,878549
3121,000000	0,877823
3120,000000	0,876276
3119,000000	0,874819
3118,000000	0,874721
3117,000000	0,876426
3116,000000	0,878932
3115,000000	0,880610
3114,000000	0,880691
3113,000000	0,879777
3112,000000	0,879013
3111,000000	0,879062
3110,000000	0,879908
3109,000000	0,881213
3108,000000	0,882603
3107,000000	0,883750
3106,000000	0,884443
3105,000000	0,884560
3104,000000	0,884043
3103,000000	0,883079
3102,000000	0,882262
3101,000000	0,882192
3100,000000	0,882798
3099,000000	0,883336
3098,000000	0,883289
3097,000000	0,883020
3096,000000	0,883322
3095,000000	0,884568
3094,000000	0,886492
3093,000000	0,888538
3092,000000	0,890114
3091,000000	0,890792
3090,000000	0,890662
3089,000000	0,890423
3088,000000	0,890701
3087,000000	0,891311
3086,000000	0,891522
3085,000000	0,891013
3084,000000	0,890166
3083,000000	0,889339
3082,000000	0,888339
3081,000000	0,886922
3080,000000	0,885548
3079,000000	0,885201
3078,000000	0,886424
3077,000000	0,888762
3076,000000	0,891179
3075,000000	0,892880
3074,000000	0,893657
3073,000000	0,893656
3072,000000	0,893059
3071,000000	0,891988
3070,000000	0,890553
3069,000000	0,888882
3068,000000	0,887196
3067,000000	0,885911
3066,000000	0,885546
3065,000000	0,886349
3064,000000	0,888016
3063,000000	0,889889
3062,000000	0,891373
3061,000000	0,892123
3060,000000	0,892011
3059,000000	0,891239
3058,000000	0,890434
3057,000000	0,890306
3056,000000	0,891091
3055,000000	0,892492
3054,000000	0,894140
3053,000000	0,895809
3052,000000	0,897115
3051,000000	0,897525
3050,000000	0,897011
3049,000000	0,896415
3048,000000	0,896684
3047,000000	0,897804
3046,000000	0,898862
3045,000000	0,899154
3044,000000	0,898890
3043,000000	0,898765
3042,000000	0,899160
3041,000000	0,899897
3040,000000	0,900512
3039,000000	0,900585
3038,000000	0,899973
3037,000000	0,898903
3036,000000	0,897792
3035,000000	0,896874
3034,000000	0,896118
3033,000000	0,895572
3032,000000	0,895624
3031,000000	0,896676
3030,000000	0,898557
3029,000000	0,900469
3028,000000	0,901609
3027,000000	0,901790
3026,000000	0,901431
3025,000000	0,901035
3024,000000	0,900783
3023,000000	0,900560
3022,000000	0,900203
3021,000000	0,899620
3020,000000	0,898807
3019,000000	0,897928
3018,000000	0,897336
3017,000000	0,897321
3016,000000	0,897773
3015,000000	0,898302
3014,000000	0,898804
3013,000000	0,899771
3012,000000	0,901751
3011,000000	0,904546
3010,000000	0,907185
3009,000000	0,908760
3008,000000	0,909132
3007,000000	0,908794
3006,000000	0,908320
3005,000000	0,908158
3004,000000	0,908715
3003,000000	0,910232
3002,000000	0,912452
3001,000000	0,914633
3000,000000	0,916040
2999,000000	0,916378
2998,000000	0,915802
2997,000000	0,914737
2996,000000	0,913780
2995,000000	0,913512
2994,000000	0,914119
2993,000000	0,915240
2992,000000	0,916343
2991,000000	0,917187
2990,000000	0,917755
2989,000000	0,917888
2988,000000	0,917329
2987,000000	0,916157
2986,000000	0,914861
2985,000000	0,913860
2984,000000	0,913197
2983,000000	0,912842
2982,000000	0,913034
2981,000000	0,914017
2980,000000	0,915487
2979,000000	0,916537
2978,000000	0,916269
2977,000000	0,914489
2976,000000	0,911912
2975,000000	0,909685
2974,000000	0,908537
2973,000000	0,908202
2972,000000	0,907752
2971,000000	0,906593
2970,000000	0,905061
2969,000000	0,903975
2968,000000	0,903712
2967,000000	0,903818
2966,000000	0,903412
2965,000000	0,901900
2964,000000	0,899480
2963,000000	0,897110
2962,000000	0,895853
2961,000000	0,896005
2960,000000	0,896930
2959,000000	0,897816
2958,000000	0,898393
2957,000000	0,898736
2956,000000	0,898704
2955,000000	0,898047
2954,000000	0,896974
2953,000000	0,896120
2952,000000	0,895870
2951,000000	0,896045
2950,000000	0,896324
2949,000000	0,896596
2948,000000	0,896783
2947,000000	0,896675
2946,000000	0,896221
2945,000000	0,895700
2944,000000	0,895349
2943,000000	0,894949
2942,000000	0,894036
2941,000000	0,892418
2940,000000	0,890248
2939,000000	0,887713
2938,000000	0,884963
2937,000000	0,882340
2936,000000	0,880375
2935,000000	0,879357
2934,000000	0,879033
2933,000000	0,878837
2932,000000	0,878349
2931,000000	0,877441
2930,000000	0,876136
2929,000000	0,874582
2928,000000	0,873250
2927,000000	0,872916
2926,000000	0,874131
2925,000000	0,876688
2924,000000	0,879731
2923,000000	0,882488
2922,000000	0,884818
2921,000000	0,887108
2920,000000	0,889851
2919,000000	0,893319
2918,000000	0,897377
2917,000000	0,901405
2916,000000	0,904642
2915,000000	0,906844
2914,000000	0,908519
2913,000000	0,910290
2912,000000	0,912171
2911,000000	0,913712
2910,000000	0,914713
2909,000000	0,915466
2908,000000	0,916286
2907,000000	0,917166
2906,000000	0,917991
2905,000000	0,918853
2904,000000	0,919989
2903,000000	0,921515
2902,000000	0,923288
2901,000000	0,924937
2900,000000	0,926062
2899,000000	0,926594
2898,000000	0,926935
2897,000000	0,927571
2896,000000	0,928560
2895,000000	0,929584
2894,000000	0,930506
2893,000000	0,931575
2892,000000	0,932985
2891,000000	0,934430
2890,000000	0,935281
2889,000000	0,935208
2888,000000	0,934583
2887,000000	0,934326
2886,000000	0,935184
2885,000000	0,936944
2884,000000	0,938447
2883,000000	0,938673
2882,000000	0,937830
2881,000000	0,937067
2880,000000	0,937132
2879,000000	0,937703
2878,000000	0,938051
2877,000000	0,937903
2876,000000	0,937385
2875,000000	0,936567
2874,000000	0,935446
2873,000000	0,934145
2872,000000	0,932774
2871,000000	0,931246
2870,000000	0,929535
2869,000000	0,927937
2868,000000	0,926720
2867,000000	0,925630
2866,000000	0,924112
2865,000000	0,922043
2864,000000	0,919917
2863,000000	0,918323
2862,000000	0,917450
2861,000000	0,917144
2860,000000	0,917156
2859,000000	0,917272
2858,000000	0,917475
2857,000000	0,918094
2856,000000	0,919620
2855,000000	0,922212
2854,000000	0,925465
2853,000000	0,928740
2852,000000	0,931614
2851,000000	0,934000
2850,000000	0,936029
2849,000000	0,937986
2848,000000	0,940266
2847,000000	0,943128
2846,000000	0,946354
2845,000000	0,949224
2844,000000	0,950989
2843,000000	0,951516
2842,000000	0,951514
2841,000000	0,952085
2840,000000	0,953913
2839,000000	0,956804
2838,000000	0,959904
2837,000000	0,962378
2836,000000	0,963960
2835,000000	0,964996
2834,000000	0,966049
2833,000000	0,967368
2832,000000	0,968695
2831,000000	0,969562
2830,000000	0,969797
2829,000000	0,969667
2828,000000	0,969561
2827,000000	0,969623
2826,000000	0,969778
2825,000000	0,969988
2824,000000	0,970363
2823,000000	0,971045
2822,000000	0,972061
2821,000000	0,973274
2820,000000	0,974460
2819,000000	0,975516
2818,000000	0,976591
2817,000000	0,977916
2816,000000	0,979420
2815,000000	0,980678
2814,000000	0,981359
2813,000000	0,981625
2812,000000	0,981901
2811,000000	0,982313
2810,000000	0,982526
2809,000000	0,982170
2808,000000	0,981264
2807,000000	0,980193
2806,000000	0,979440
2805,000000	0,979355
2804,000000	0,980048
2803,000000	0,981353
2802,000000	0,982930
2801,000000	0,984422
2800,000000	0,985525
2799,000000	0,986006
2798,000000	0,985815
2797,000000	0,985198
2796,000000	0,984541
2795,000000	0,984032
2794,000000	0,983619
2793,000000	0,983362
2792,000000	0,983636
2791,000000	0,984742
2790,000000	0,986368
2789,000000	0,987705
2788,000000	0,988219
2787,000000	0,988155
2786,000000	0,988164
2785,000000	0,988564
2784,000000	0,989179
2783,000000	0,989835
2782,000000	0,990704
2781,000000	0,991986
2780,000000	0,993447
2779,000000	0,994551
2778,000000	0,995054
2777,000000	0,995258
2776,000000	0,995640
2775,000000	0,996397
2774,000000	0,997432
2773,000000	0,998603
2772,000000	0,999821
2771,000000	1,000987
2770,000000	1,001996
2769,000000	1,002741
2768,000000	1,003044
2767,000000	1,002735
2766,000000	1,002005
2765,000000	1,001539
2764,000000	1,001954
2763,000000	1,003062
2762,000000	1,003974
2761,000000	1,004029
2760,000000	1,003395
2759,000000	1,002676
2758,000000	1,002209
2757,000000	1,001985
2756,000000	1,002025
2755,000000	1,002498
2754,000000	1,003491
2753,000000	1,004891
2752,000000	1,006455
2751,000000	1,007870
2750,000000	1,008859
2749,000000	1,009447
2748,000000	1,010017
2747,000000	1,010801
2746,000000	1,011362
2745,000000	1,010925
2744,000000	1,009309
2743,000000	1,007287
2742,000000	1,005929
2741,000000	1,005819
2740,000000	1,006900
2739,000000	1,008704
2738,000000	1,010515
2737,000000	1,011629
2736,000000	1,011815
2735,000000	1,011425
2734,000000	1,010885
2733,000000	1,010263
2732,000000	1,009581
2731,000000	1,009307
2730,000000	1,010088
2729,000000	1,011971
2728,000000	1,014202
2727,000000	1,015908
2726,000000	1,016752
2725,000000	1,016902
2724,000000	1,016662
2723,000000	1,016359
2722,000000	1,016387
2721,000000	1,016988
2720,000000	1,017898
2719,000000	1,018419
2718,000000	1,018141
2717,000000	1,017577
2716,000000	1,017780
2715,000000	1,019095
2714,000000	1,020557
2713,000000	1,020898
2712,000000	1,020071
2711,000000	1,019248
2710,000000	1,019240
2709,000000	1,019564
2708,000000	1,019406
2707,000000	1,018933
2706,000000	1,018974
2705,000000	1,019731
2704,000000	1,020578
2703,000000	1,021087
2702,000000	1,021541
2701,000000	1,022245
2700,000000	1,022970
2699,000000	1,023427
2698,000000	1,023869
2697,000000	1,024784
2696,000000	1,026207
2695,000000	1,027638
2694,000000	1,028536
2693,000000	1,028732
2692,000000	1,028523
2691,000000	1,028496
2690,000000	1,029046
2689,000000	1,029907
2688,000000	1,030330
2687,000000	1,029898
2686,000000	1,029040
2685,000000	1,028605
2684,000000	1,029062
2683,000000	1,030225
2682,000000	1,031554
2681,000000	1,032573
2680,000000	1,033143
2679,000000	1,033504
2678,000000	1,033944
2677,000000	1,034398
2676,000000	1,034511
2675,000000	1,034166
2674,000000	1,033726
2673,000000	1,033636
2672,000000	1,033982
2671,000000	1,034524
2670,000000	1,034924
2669,000000	1,034830
2668,000000	1,034101
2667,000000	1,033165
2666,000000	1,032867
2665,000000	1,033607
2664,000000	1,034823
2663,000000	1,035652
2662,000000	1,035925
2661,000000	1,036107
2660,000000	1,036391
2659,000000	1,036341
2658,000000	1,035582
2657,000000	1,034438
2656,000000	1,033632
2655,000000	1,033556
2654,000000	1,034058
2653,000000	1,034887
2652,000000	1,036052
2651,000000	1,037642
2650,000000	1,039396
2649,000000	1,040711
2648,000000	1,041174
2647,000000	1,040965
2646,000000	1,040573
2645,000000	1,040165
2644,000000	1,039502
2643,000000	1,038464
2642,000000	1,037399
2641,000000	1,036800
2640,000000	1,036842
2639,000000	1,037367
2638,000000	1,038155
2637,000000	1,039058
2636,000000	1,039985
2635,000000	1,040904
2634,000000	1,041753
2633,000000	1,042260
2632,000000	1,042029
2631,000000	1,040991
2630,000000	1,039727
2629,000000	1,039144
2628,000000	1,039757
2627,000000	1,041260
2626,000000	1,042738
2625,000000	1,043372
2624,000000	1,043101
2623,000000	1,042657
2622,000000	1,042818
2621,000000	1,043666
2620,000000	1,044700
2619,000000	1,045536
2618,000000	1,046116
2617,000000	1,046291
2616,000000	1,045723
2615,000000	1,044440
2614,000000	1,043084
2613,000000	1,042288
2612,000000	1,042075
2611,000000	1,042105
2610,000000	1,042258
2609,000000	1,042642
2608,000000	1,043274
2607,000000	1,044108
2606,000000	1,045222
2605,000000	1,046663
2604,000000	1,048178
2603,000000	1,049344
2602,000000	1,049877
2601,000000	1,049674
2600,000000	1,048785
2599,000000	1,047584
2598,000000	1,046723
2597,000000	1,046579
2596,000000	1,046885
2595,000000	1,047164
2594,000000	1,047285
2593,000000	1,047289
2592,000000	1,046993
2591,000000	1,046282
2590,000000	1,045623
2589,000000	1,045710
2588,000000	1,046568
2587,000000	1,047496
2586,000000	1,047940
2585,000000	1,047966
2584,000000	1,047799
2583,000000	1,047390
2582,000000	1,046692
2581,000000	1,046012
2580,000000	1,045765
2579,000000	1,046053
2578,000000	1,046674
2577,000000	1,047388
2576,000000	1,048017
2575,000000	1,048411
2574,000000	1,048493
2573,000000	1,048312
2572,000000	1,048006
2571,000000	1,047734
2570,000000	1,047617
2569,000000	1,047694
2568,000000	1,047940
2567,000000	1,048334
2566,000000	1,048756
2565,000000	1,048800
2564,000000	1,048004
2563,000000	1,046513
2562,000000	1,045312
2561,000000	1,045399
2560,000000	1,046757
2559,000000	1,048454
2558,000000	1,049595
2557,000000	1,049911
2556,000000	1,049538
2555,000000	1,048813
2554,000000	1,048306
2553,000000	1,048498
2552,000000	1,049167
2551,000000	1,049481
2550,000000	1,048999
2549,000000	1,048251
2548,000000	1,048053
2547,000000	1,048504
2546,000000	1,049034
2545,000000	1,049248
2544,000000	1,049323
2543,000000	1,049583
2542,000000	1,049989
2541,000000	1,050188
2540,000000	1,049916
2539,000000	1,049261
2538,000000	1,048590
2537,000000	1,048239
2536,000000	1,048275
2535,000000	1,048530
2534,000000	1,048833
2533,000000	1,049118
2532,000000	1,049309
2531,000000	1,049256
2530,000000	1,048912
2529,000000	1,048502
2528,000000	1,048382
2527,000000	1,048706
2526,000000	1,049241
2525,000000	1,049542
2524,000000	1,049322
2523,000000	1,048687
2522,000000	1,048021
2521,000000	1,047658
2520,000000	1,047635
2519,000000	1,047744
2518,000000	1,047721
2517,000000	1,047387
2516,000000	1,046726
2515,000000	1,045931
2514,000000	1,045298
2513,000000	1,045009
2512,000000	1,045004
2511,000000	1,045114
2510,000000	1,045231
2509,000000	1,045342
2508,000000	1,045526
2507,000000	1,045971
2506,000000	1,046820
2505,000000	1,047854
2504,000000	1,048468
2503,000000	1,048138
2502,000000	1,046904
2501,000000	1,045258
2500,000000	1,043656
2499,000000	1,042251
2498,000000	1,041033
2497,000000	1,040036
2496,000000	1,039449
2495,000000	1,039568
2494,000000	1,040538
2493,000000	1,042037
2492,000000	1,043376
2491,000000	1,044062
2490,000000	1,044192
2489,000000	1,044165
2488,000000	1,044242
2487,000000	1,044494
2486,000000	1,044901
2485,000000	1,045177
2484,000000	1,044767
2483,000000	1,043460
2482,000000	1,041894
2481,000000	1,040981
2480,000000	1,040880
2479,000000	1,041004
2478,000000	1,041035
2477,000000	1,041361
2476,000000	1,042264
2475,000000	1,043189
2474,000000	1,043247
2473,000000	1,042213
2472,000000	1,040708
2471,000000	1,039515
2470,000000	1,038960
2469,000000	1,038850
2468,000000	1,038766
2467,000000	1,038445
2466,000000	1,038011
2465,000000	1,037800
2464,000000	1,037942
2463,000000	1,038289
2462,000000	1,038847
2461,000000	1,039920
2460,000000	1,041567
2459,000000	1,043108
2458,000000	1,043590
2457,000000	1,042768
2456,000000	1,041311
2455,000000	1,040037
2454,000000	1,039220
2453,000000	1,038715
2452,000000	1,038411
2451,000000	1,038312
2450,000000	1,038345
2449,000000	1,038387
2448,000000	1,038464
2447,000000	1,038718
2446,000000	1,039161
2445,000000	1,039622
2444,000000	1,039963
2443,000000	1,040177
2442,000000	1,040231
2441,000000	1,040030
2440,000000	1,039673
2439,000000	1,039516
2438,000000	1,039756
2437,000000	1,040073
2436,000000	1,039980
2435,000000	1,039479
2434,000000	1,039081
2433,000000	1,039117
2432,000000	1,039329
2431,000000	1,039272
2430,000000	1,038851
2429,000000	1,038298
2428,000000	1,037846
2427,000000	1,037654
2426,000000	1,037841
2425,000000	1,038297
2424,000000	1,038569
2423,000000	1,038251
2422,000000	1,037501
2421,000000	1,036921
2420,000000	1,036896
2419,000000	1,037293
2418,000000	1,037800
2417,000000	1,038303
2416,000000	1,038786
2415,000000	1,039081
2414,000000	1,038948
2413,000000	1,038418
2412,000000	1,037882
2411,000000	1,037742
2410,000000	1,037922
2409,000000	1,037862
2408,000000	1,037128
2407,000000	1,036041
2406,000000	1,035479
2405,000000	1,035916
2404,000000	1,036869
2403,000000	1,037489
2402,000000	1,037512
2401,000000	1,037321
2400,000000	1,037187
2399,000000	1,036939
2398,000000	1,036484
2397,000000	1,036214
2396,000000	1,036517
2395,000000	1,037086
2394,000000	1,037079
2393,000000	1,036021
2392,000000	1,034287
2391,000000	1,032445
2390,000000	1,030255
2389,000000	1,026345
2388,000000	1,018991
2387,000000	1,007224
2386,000000	0,990921
2385,000000	0,970090
2384,000000	0,944049
2383,000000	0,911702
2382,000000	0,872755
2381,000000	0,828257
2380,000000	0,780318
2379,000000	0,731090
2378,000000	0,682114
2377,000000	0,634210
2376,000000	0,587592
2375,000000	0,542345
2374,000000	0,498895
2373,000000	0,458170
2372,000000	0,421041
2371,000000	0,387872
2370,000000	0,358521
2369,000000	0,332753
2368,000000	0,310423
2367,000000	0,291202
2366,000000	0,274775
2365,000000	0,261107
2364,000000	0,250408
2363,000000	0,242751
2362,000000	0,237810
2361,000000	0,235381
2360,000000	0,235724
2359,000000	0,239320
2358,000000	0,246691
2357,000000	0,258375
2356,000000	0,275154
2355,000000	0,297967
2354,000000	0,328019
2353,000000	0,366736
2352,000000	0,413507
2351,000000	0,461929
2350,000000	0,498896
2349,000000	0,511122
2348,000000	0,494885
2347,000000	0,459698
2346,000000	0,421255
2345,000000	0,390703
2344,000000	0,370472
2343,000000	0,357927
2342,000000	0,350598
2341,000000	0,347287
2340,000000	0,347051
2339,000000	0,348887
2338,000000	0,352353
2337,000000	0,357070
2336,000000	0,361888
2335,000000	0,365246
2334,000000	0,366608
2333,000000	0,367207
2332,000000	0,369163
2331,000000	0,374109
2330,000000	0,382476
2329,000000	0,393580
2328,000000	0,406120
2327,000000	0,418680
2326,000000	0,430199
2325,000000	0,440457
2324,000000	0,450305
2323,000000	0,461445
2322,000000	0,475570
2321,000000	0,493511
2320,000000	0,514982
2319,000000	0,538743
2318,000000	0,562859
2317,000000	0,585212
2316,000000	0,604578
2315,000000	0,621458
2314,000000	0,637512
2313,000000	0,654087
2312,000000	0,671456
2311,000000	0,689374
2310,000000	0,707752
2309,000000	0,726612
2308,000000	0,745804
2307,000000	0,765077
2306,000000	0,784166
2305,000000	0,802636
2304,000000	0,819953
2303,000000	0,835846
2302,000000	0,850289
2301,000000	0,863125
2300,000000	0,874117
2299,000000	0,883676
2298,000000	0,892901
2297,000000	0,902497
2296,000000	0,912060
2295,000000	0,920844
2294,000000	0,928935
2293,000000	0,937046
2292,000000	0,945419
2291,000000	0,953578
2290,000000	0,961168
2289,000000	0,968476
2288,000000	0,975953
2287,000000	0,983537
2286,000000	0,990603
2285,000000	0,996301
2284,000000	0,999898
2283,000000	1,001107
2282,000000	1,000292
2281,000000	0,998376
2280,000000	0,996382
2279,000000	0,994996
2278,000000	0,994327
2277,000000	0,993950
2276,000000	0,993332
2275,000000	0,992350
2274,000000	0,991380
2273,000000	0,990744
2272,000000	0,990300
2271,000000	0,989763
2270,000000	0,989303
2269,000000	0,989460
2268,000000	0,990418
2267,000000	0,991626
2266,000000	0,992315
2265,000000	0,992357
2264,000000	0,992498
2263,000000	0,993683
2262,000000	0,996125
2261,000000	0,999038
2260,000000	1,001323
2259,000000	1,002454
2258,000000	1,002682
2257,000000	1,002627
2256,000000	1,002917
2255,000000	1,004061
2254,000000	1,006136
2253,000000	1,008477
2252,000000	1,010025
2251,000000	1,010288
2250,000000	1,009747
2249,000000	1,009224
2248,000000	1,009129
2247,000000	1,009493
2246,000000	1,010367
2245,000000	1,011770
2244,000000	1,013363
2243,000000	1,014547
2242,000000	1,014940
2241,000000	1,014659
2240,000000	1,014176
2239,000000	1,013995
2238,000000	1,014279
2237,000000	1,014642
2236,000000	1,014466
2235,000000	1,013610
2234,000000	1,012647
2233,000000	1,012228
2232,000000	1,012392
2231,000000	1,012739
2230,000000	1,013104
2229,000000	1,013670
2228,000000	1,014457
2227,000000	1,015071
2226,000000	1,015132
2225,000000	1,014721
2224,000000	1,014247
2223,000000	1,014002
2222,000000	1,014004
2221,000000	1,014188
2220,000000	1,014468
2219,000000	1,014535
2218,000000	1,013894
2217,000000	1,012422
2216,000000	1,010817
2215,000000	1,010075
2214,000000	1,010419
2213,000000	1,011102
2212,000000	1,011431
2211,000000	1,011545
2210,000000	1,011884
2209,000000	1,012341
2208,000000	1,012481
2207,000000	1,012265
2206,000000	1,011874
2205,000000	1,011038
2204,000000	1,009300
2203,000000	1,007010
2202,000000	1,005317
2201,000000	1,004972
2200,000000	1,005638
2199,000000	1,006536
2198,000000	1,007173
2197,000000	1,007290
2196,000000	1,006778
2195,000000	1,006022
2194,000000	1,005802
2193,000000	1,006424
2192,000000	1,007297
2191,000000	1,007633
2190,000000	1,007194
2189,000000	1,006110
2188,000000	1,004494
2187,000000	1,002652
2186,000000	1,001246
2185,000000	1,000758
2184,000000	1,001000
2183,000000	1,001483
2182,000000	1,001959
2181,000000	1,002319
2180,000000	1,002319
2179,000000	1,001869
2178,000000	1,001330
2177,000000	1,001117
2176,000000	1,001149
2175,000000	1,001059
2174,000000	1,000764
2173,000000	1,000544
2172,000000	1,000663
2171,000000	1,001136
2170,000000	1,001687
2169,000000	1,001801
2168,000000	1,001052
2167,000000	0,999568
2166,000000	0,997909
2165,000000	0,996426
2164,000000	0,995097
2163,000000	0,994103
2162,000000	0,993954
2161,000000	0,994695
2160,000000	0,995503
2159,000000	0,995566
2158,000000	0,995010
2157,000000	0,994502
2156,000000	0,994274
2155,000000	0,994011
2154,000000	0,993443
2153,000000	0,992556
2152,000000	0,991423
2151,000000	0,990234
2150,000000	0,989333
2149,000000	0,988876
2148,000000	0,988642
2147,000000	0,988474
2146,000000	0,988591
2145,000000	0,989079
2144,000000	0,989397
2143,000000	0,988916
2142,000000	0,987784
2141,000000	0,986752
2140,000000	0,986296
2139,000000	0,986318
2138,000000	0,986573
2137,000000	0,986889
2136,000000	0,987008
2135,000000	0,986666
2134,000000	0,985918
2133,000000	0,985128
2132,000000	0,984633
2131,000000	0,984561
2130,000000	0,984832
2129,000000	0,985150
2128,000000	0,985130
2127,000000	0,984658
2126,000000	0,984019
2125,000000	0,983521
2124,000000	0,983193
2123,000000	0,982967
2122,000000	0,982833
2121,000000	0,982661
2120,000000	0,982179
2119,000000	0,981365
2118,000000	0,980486
2117,000000	0,979570
2116,000000	0,978285
2115,000000	0,976683
2114,000000	0,975561
2113,000000	0,975625
2112,000000	0,976629
2111,000000	0,977794
2110,000000	0,978719
2109,000000	0,979418
2108,000000	0,979808
2107,000000	0,979779
2106,000000	0,979571
2105,000000	0,979539
2104,000000	0,979674
2103,000000	0,979770
2102,000000	0,979872
2101,000000	0,980111
2100,000000	0,980289
2099,000000	0,980098
2098,000000	0,979617
2097,000000	0,979184
2096,000000	0,978911
2095,000000	0,978694
2094,000000	0,978504
2093,000000	0,978295
2092,000000	0,977839
2091,000000	0,977070
2090,000000	0,976399
2089,000000	0,976270
2088,000000	0,976650
2087,000000	0,977300
2086,000000	0,978278
2085,000000	0,979616
2084,000000	0,980764
2083,000000	0,980945
2082,000000	0,980060
2081,000000	0,978786
2080,000000	0,977843
2079,000000	0,977516
2078,000000	0,977675
2077,000000	0,977863
2076,000000	0,977546
2075,000000	0,976699
2074,000000	0,975995
2073,000000	0,976009
2072,000000	0,976444
2071,000000	0,976604
2070,000000	0,976301
2069,000000	0,975745
2068,000000	0,974865
2067,000000	0,973488
2066,000000	0,972108
2065,000000	0,971673
2064,000000	0,972433
2063,000000	0,973579
2062,000000	0,974208
2061,000000	0,974236
2060,000000	0,974183
2059,000000	0,974459
2058,000000	0,975015
2057,000000	0,975507
2056,000000	0,975650
2055,000000	0,975497
2054,000000	0,975331
2053,000000	0,975209
2052,000000	0,974892
2051,000000	0,974372
2050,000000	0,974091
2049,000000	0,974296
2048,000000	0,974543
2047,000000	0,974263
2046,000000	0,973448
2045,000000	0,972290
2044,000000	0,970594
2043,000000	0,968260
2042,000000	0,966111
2041,000000	0,965373
2040,000000	0,966319
2039,000000	0,967983
2038,000000	0,969306
2037,000000	0,969982
2036,000000	0,970210
2035,000000	0,970202
2034,000000	0,970065
2033,000000	0,969750
2032,000000	0,968994
2031,000000	0,967648
2030,000000	0,966049
2029,000000	0,964738
2028,000000	0,963894
2027,000000	0,963389
2026,000000	0,963228
2025,000000	0,963500
2024,000000	0,963981
2023,000000	0,964215
2022,000000	0,963808
2021,000000	0,962287
2020,000000	0,959140
2019,000000	0,954768
2018,000000	0,951134
2017,000000	0,950430
2016,000000	0,952886
2015,000000	0,956599
2014,000000	0,959662
2013,000000	0,961647
2012,000000	0,962948
2011,000000	0,963648
2010,000000	0,963637
2009,000000	0,963213
2008,000000	0,962843
2007,000000	0,962577
2006,000000	0,962193
2005,000000	0,961736
2004,000000	0,961549
2003,000000	0,961832
2002,000000	0,962301
2001,000000	0,962272
2000,000000	0,961254
1999,000000	0,959735
1998,000000	0,958965
1997,000000	0,959092
1996,000000	0,957702
1995,000000	0,951685
1994,000000	0,941245
1993,000000	0,931125
1992,000000	0,926654
1991,000000	0,928895
1990,000000	0,934566
1989,000000	0,940135
1988,000000	0,944639
1987,000000	0,948656
1986,000000	0,952154
1985,000000	0,954381
1984,000000	0,955137
1983,000000	0,955092
1982,000000	0,955012
1981,000000	0,955237
1980,000000	0,955757
1979,000000	0,956318
1978,000000	0,956563
1977,000000	0,956391
1976,000000	0,956066
1975,000000	0,955773
1974,000000	0,955349
1973,000000	0,954655
1972,000000	0,953558
1971,000000	0,951134
1970,000000	0,945794
1969,000000	0,937512
1968,000000	0,929650
1967,000000	0,926934
1966,000000	0,930960
1965,000000	0,938472
1964,000000	0,944610
1963,000000	0,947165
1962,000000	0,947276
1961,000000	0,946998
1960,000000	0,947222
1959,000000	0,947566
1958,000000	0,947364
1957,000000	0,946607
1956,000000	0,946116
1955,000000	0,946694
1954,000000	0,948097
1953,000000	0,949310
1952,000000	0,949761
1951,000000	0,949494
1950,000000	0,948302
1949,000000	0,945810
1948,000000	0,942381
1947,000000	0,938317
1946,000000	0,931977
1945,000000	0,921211
1944,000000	0,908181
1943,000000	0,900397
1942,000000	0,904129
1941,000000	0,917530
1940,000000	0,932409
1939,000000	0,942353
1938,000000	0,946940
1937,000000	0,948759
1936,000000	0,949473
1935,000000	0,949475
1934,000000	0,949066
1933,000000	0,948483
1932,000000	0,947744
1931,000000	0,947110
1930,000000	0,947081
1929,000000	0,947569
1928,000000	0,947522
1927,000000	0,945238
1926,000000	0,938905
1925,000000	0,928385
1924,000000	0,917289
1923,000000	0,910897
1922,000000	0,909564
1921,000000	0,906444
1920,000000	0,895849
1919,000000	0,882835
1918,000000	0,879683
1917,000000	0,891906
1916,000000	0,912058
1915,000000	0,928459
1914,000000	0,935797
1913,000000	0,935414
1912,000000	0,930050
1911,000000	0,922619
1910,000000	0,917415
1909,000000	0,917867
1908,000000	0,923149
1907,000000	0,929564
1906,000000	0,934611
1905,000000	0,937977
1904,000000	0,939762
1903,000000	0,940133
1902,000000	0,940042
1901,000000	0,940168
1900,000000	0,939386
1899,000000	0,935769
1898,000000	0,928939
1897,000000	0,920870
1896,000000	0,914924
1895,000000	0,913842
1894,000000	0,916627
1893,000000	0,917137
1892,000000	0,909217
1891,000000	0,894961
1890,000000	0,884995
1889,000000	0,887690
1888,000000	0,900352
1887,000000	0,913419
1886,000000	0,921023
1885,000000	0,924241
1884,000000	0,925973
1883,000000	0,927234
1882,000000	0,928141
1881,000000	0,929045
1880,000000	0,929858
1879,000000	0,930257
1878,000000	0,930494
1877,000000	0,930745
1876,000000	0,930310
1875,000000	0,928364
1874,000000	0,923800
1873,000000	0,912615
1872,000000	0,889091
1871,000000	0,853892
1870,000000	0,819529
1869,000000	0,802643
1868,000000	0,810115
1867,000000	0,834894
1866,000000	0,864312
1865,000000	0,889098
1864,000000	0,905113
1863,000000	0,912130
1862,000000	0,913181
1861,000000	0,912463
1860,000000	0,912101
1859,000000	0,911972
1858,000000	0,912147
1857,000000	0,913134
1856,000000	0,914172
1855,000000	0,914046
1854,000000	0,913557
1853,000000	0,914097
1852,000000	0,913979
1851,000000	0,909793
1850,000000	0,900960
1849,000000	0,888751
1848,000000	0,870397
1847,000000	0,840398
1846,000000	0,801622
1845,000000	0,770784
1844,000000	0,766657
1843,000000	0,792416
1842,000000	0,832358
1841,000000	0,866027
1840,000000	0,883469
1839,000000	0,887766
1838,000000	0,887039
1837,000000	0,886909
1836,000000	0,888811
1835,000000	0,890507
1834,000000	0,885790
1833,000000	0,867088
1832,000000	0,833911
1831,000000	0,799321
1830,000000	0,781889
1829,000000	0,787477
1828,000000	0,802518
1827,000000	0,810252
1826,000000	0,809780
1825,000000	0,813953
1824,000000	0,830688
1823,000000	0,853634
1822,000000	0,871858
1821,000000	0,881126
1820,000000	0,883490
1819,000000	0,881894
1818,000000	0,879361
1817,000000	0,879203
1816,000000	0,881525
1815,000000	0,881349
1814,000000	0,873554
1813,000000	0,859048
1812,000000	0,844190
1811,000000	0,835644
1810,000000	0,836617
1809,000000	0,845811
1808,000000	0,858052
1807,000000	0,867083
1806,000000	0,868983
1805,000000	0,862428
1804,000000	0,846920
1803,000000	0,824250
1802,000000	0,801622
1801,000000	0,788928
1800,000000	0,790711
1799,000000	0,802652
1798,000000	0,816160
1797,000000	0,822477
1796,000000	0,813339
1795,000000	0,784759
1794,000000	0,745151
1793,000000	0,714906
1792,000000	0,712561
1791,000000	0,740154
1790,000000	0,782804
1789,000000	0,820418
1788,000000	0,839380
1787,000000	0,838666
1786,000000	0,828732
1785,000000	0,821690
1784,000000	0,820032
1783,000000	0,817143
1782,000000	0,809638
1781,000000	0,803957
1780,000000	0,807257
1779,000000	0,816713
1778,000000	0,822415
1777,000000	0,816244
1776,000000	0,793504
1775,000000	0,752458
1774,000000	0,701176
1773,000000	0,660897
1772,000000	0,651582
1771,000000	0,672300
1770,000000	0,703740
1769,000000	0,731062
1768,000000	0,756139
1767,000000	0,784469
1766,000000	0,808735
1765,000000	0,813662
1764,000000	0,795006
1763,000000	0,767596
1762,000000	0,752546
1761,000000	0,757575
1760,000000	0,771396
1759,000000	0,777459
1758,000000	0,772838
1757,000000	0,770150
1756,000000	0,778313
1755,000000	0,786909
1754,000000	0,775984
1753,000000	0,740248
1752,000000	0,696361
1751,000000	0,665412
1750,000000	0,655724
1749,000000	0,663756
1748,000000	0,683035
1747,000000	0,706338
1746,000000	0,725224
1745,000000	0,734685
1744,000000	0,735894
1743,000000	0,730487
1742,000000	0,717096
1741,000000	0,699356
1740,000000	0,690336
1739,000000	0,697627
1738,000000	0,705037
1737,000000	0,684000
1736,000000	0,628303
1735,000000	0,569101
1734,000000	0,546951
1733,000000	0,573116
1732,000000	0,625133
1731,000000	0,675250
1730,000000	0,713450
1729,000000	0,743465
1728,000000	0,767438
1727,000000	0,781684
1726,000000	0,783976
1725,000000	0,778435
1724,000000	0,772075
1723,000000	0,766029
1722,000000	0,751239
1721,000000	0,713989
1720,000000	0,651101
1719,000000	0,580235
1718,000000	0,530389
1717,000000	0,519435
1716,000000	0,543094
1715,000000	0,585418
1714,000000	0,633489
1713,000000	0,678871
1712,000000	0,712721
1711,000000	0,728482
1710,000000	0,726748
1709,000000	0,711142
1708,000000	0,683327
1707,000000	0,649295
1706,000000	0,624309
1705,000000	0,616947
1704,000000	0,610388
1703,000000	0,576137
1702,000000	0,512757
1701,000000	0,456318
1700,000000	0,440753
1699,000000	0,459125
1698,000000	0,478810
1697,000000	0,486749
1696,000000	0,502608
1695,000000	0,546333
1694,000000	0,608454
1693,000000	0,659762
1692,000000	0,680871
1691,000000	0,676351
1690,000000	0,662434
1689,000000	0,646741
1688,000000	0,619551
1687,000000	0,566815
1686,000000	0,494808
1685,000000	0,436973
1684,000000	0,427707
1683,000000	0,469611
1682,000000	0,533104
1681,000000	0,587631
1680,000000	0,621927
1679,000000	0,634345
1678,000000	0,621226
1677,000000	0,586549
1676,000000	0,552101
1675,000000	0,541042
1674,000000	0,552036
1673,000000	0,560490
1672,000000	0,548083
1671,000000	0,523182
1670,000000	0,510350
1669,000000	0,526038
1668,000000	0,565416
1667,000000	0,606608
1666,000000	0,625824
1665,000000	0,614496
1664,000000	0,587294
1663,000000	0,570523
1662,000000	0,578900
1661,000000	0,604926
1660,000000	0,630180
1659,000000	0,640956
1658,000000	0,629468
1657,000000	0,586795
1656,000000	0,508766
1655,000000	0,412910
1654,000000	0,340736
1653,000000	0,330001
1652,000000	0,380130
1651,000000	0,449031
1650,000000	0,487323
1649,000000	0,478572
1648,000000	0,447020
1647,000000	0,431228
1646,000000	0,451884
1645,000000	0,501174
1644,000000	0,554838
1643,000000	0,592500
1642,000000	0,608149
1641,000000	0,605894
1640,000000	0,588080
1639,000000	0,551221
1638,000000	0,496721
1637,000000	0,442639
1636,000000	0,417436
1635,000000	0,437338
1634,000000	0,491134
1633,000000	0,549413
1632,000000	0,586724
1631,000000	0,595472
1630,000000	0,584284
1629,000000	0,568074
1628,000000	0,557232
1627,000000	0,551156
1626,000000	0,541383
1625,000000	0,524417
1624,000000	0,510277
1623,000000	0,513713
1622,000000	0,535667
1621,000000	0,556938
1620,000000	0,554062
1619,000000	0,521920
1618,000000	0,480049
1617,000000	0,457610
1616,000000	0,470309
1615,000000	0,509281
1614,000000	0,550489
1613,000000	0,574692
1612,000000	0,579293
1611,000000	0,573790
1610,000000	0,567581
1609,000000	0,564534
1608,000000	0,565221
1607,000000	0,568980
1606,000000	0,573181
1605,000000	0,574674
1604,000000	0,573439
1603,000000	0,572859
1602,000000	0,575407
1601,000000	0,580026
1600,000000	0,584288
1599,000000	0,586655
1598,000000	0,585916
1597,000000	0,581142
1596,000000	0,573952
1595,000000	0,568634
1594,000000	0,568053
1593,000000	0,570677
1592,000000	0,573167
1591,000000	0,574451
1590,000000	0,575494
1589,000000	0,576568
1588,000000	0,577046
1587,000000	0,577141
1586,000000	0,577575
1585,000000	0,577784
1584,000000	0,576529
1583,000000	0,574139
1582,000000	0,571705
1581,000000	0,566436
1580,000000	0,550297
1579,000000	0,516772
1578,000000	0,471714
1577,000000	0,435575
1576,000000	0,430279
1575,000000	0,459318
1574,000000	0,500535
1573,000000	0,522518
1572,000000	0,511462
1571,000000	0,482268
1570,000000	0,462763
1569,000000	0,468144
1568,000000	0,490709
1567,000000	0,512446
1566,000000	0,523257
1565,000000	0,525019
1564,000000	0,519238
1563,000000	0,495965
1562,000000	0,441917
1561,000000	0,362242
1560,000000	0,289098
1559,000000	0,259712
1558,000000	0,283644
1557,000000	0,336575
1556,000000	0,387431
1555,000000	0,424943
1554,000000	0,454552
1553,000000	0,479160
1552,000000	0,494132
1551,000000	0,499396
1550,000000	0,503214
1549,000000	0,510108
1548,000000	0,512266
1547,000000	0,499131
1546,000000	0,470450
1545,000000	0,434667
1544,000000	0,397381
1543,000000	0,357760
1542,000000	0,317274
1541,000000	0,287816
1540,000000	0,287419
1539,000000	0,324826
1538,000000	0,386381
1537,000000	0,440330
1536,000000	0,460424
1535,000000	0,448790
1534,000000	0,432319
1533,000000	0,435250
1532,000000	0,457338
1531,000000	0,479879
1530,000000	0,486533
1529,000000	0,475060
1528,000000	0,453606
1527,000000	0,432611
1526,000000	0,417822
1525,000000	0,405629
1524,000000	0,387008
1523,000000	0,360836
1522,000000	0,340715
1521,000000	0,341299
1520,000000	0,359659
1519,000000	0,378247
1518,000000	0,387241
1517,000000	0,394815
1516,000000	0,411936
1515,000000	0,435484
1514,000000	0,452709
1513,000000	0,456847
1512,000000	0,449578
1511,000000	0,430929
1510,000000	0,396183
1509,000000	0,346723
1508,000000	0,299152
1507,000000	0,278316
1506,000000	0,299133
1505,000000	0,354152
1504,000000	0,417723
1503,000000	0,463166
1502,000000	0,478492
1501,000000	0,468311
1500,000000	0,444146
1499,000000	0,415925
1498,000000	0,392302
1497,000000	0,382515
1496,000000	0,391915
1495,000000	0,414488
1494,000000	0,433947
1493,000000	0,435380
1492,000000	0,417425
1491,000000	0,393118
1490,000000	0,379145
1489,000000	0,383689
1488,000000	0,403805
1487,000000	0,431700
1486,000000	0,460681
1485,000000	0,485017
1484,000000	0,499277
1483,000000	0,502383
1482,000000	0,500313
1481,000000	0,499779
1480,000000	0,499393
1479,000000	0,491626
1478,000000	0,473332
1477,000000	0,449009
1476,000000	0,423245
1475,000000	0,396535
1474,000000	0,372398
1473,000000	0,362208
1472,000000	0,376459
1471,000000	0,411988
1470,000000	0,452048
1469,000000	0,478308
1468,000000	0,481558
1467,000000	0,465197
1466,000000	0,443041
1465,000000	0,431640
1464,000000	0,438080
1463,000000	0,453478
1462,000000	0,459635
1461,000000	0,442993
1460,000000	0,402673
1459,000000	0,350768
1458,000000	0,308057
1457,000000	0,294673
1456,000000	0,316333
1455,000000	0,358801
1454,000000	0,399605
1453,000000	0,425748
1452,000000	0,437865
1451,000000	0,440551
1450,000000	0,436425
1449,000000	0,429810
1448,000000	0,428655
1447,000000	0,437897
1446,000000	0,453860
1445,000000	0,468384
1444,000000	0,476793
1443,000000	0,480028
1442,000000	0,480186
1441,000000	0,475662
1440,000000	0,461031
1439,000000	0,433254
1438,000000	0,399870
1437,000000	0,378269
1436,000000	0,381744
1435,000000	0,405819
1434,000000	0,431659
1433,000000	0,443893
1432,000000	0,441900
1431,000000	0,434905
1430,000000	0,431532
1429,000000	0,434938
1428,000000	0,442495
1427,000000	0,447469
1426,000000	0,444653
1425,000000	0,436442
1424,000000	0,429486
1423,000000	0,423572
1422,000000	0,409781
1421,000000	0,383696
1420,000000	0,355913
1419,000000	0,343714
1418,000000	0,353782
1417,000000	0,377877
1416,000000	0,402925
1415,000000	0,420762
1414,000000	0,429146
1413,000000	0,429451
1412,000000	0,425567
1411,000000	0,421817
1410,000000	0,419588
1409,000000	0,416580
1408,000000	0,409773
1407,000000	0,398699
1406,000000	0,386758
1405,000000	0,379634
1404,000000	0,380356
1403,000000	0,384649
1402,000000	0,383555
1401,000000	0,373035
1400,000000	0,358990
1399,000000	0,349745
1398,000000	0,346158
1397,000000	0,342992
1396,000000	0,338514
1395,000000	0,337742
1394,000000	0,345210
1393,000000	0,358585
1392,000000	0,370594
1391,000000	0,374849
1390,000000	0,369357
1389,000000	0,357370
1388,000000	0,346233
1387,000000	0,342746
1386,000000	0,347577
1385,000000	0,355281
1384,000000	0,360303
1383,000000	0,361314
1382,000000	0,359810
1381,000000	0,357185
1380,000000	0,354405
1379,000000	0,352055
1378,000000	0,348820
1377,000000	0,341896
1376,000000	0,331170
1375,000000	0,321638
1374,000000	0,319242
1373,000000	0,324568
1372,000000	0,332198
1371,000000	0,336402
1370,000000	0,336050
1369,000000	0,334002
1368,000000	0,332927
1367,000000	0,332144
1366,000000	0,328418
1365,000000	0,319784
1364,000000	0,308604
1363,000000	0,300468
1362,000000	0,299525
1361,000000	0,305155
1360,000000	0,313234
1359,000000	0,319773
1358,000000	0,323056
1357,000000	0,323280
1356,000000	0,321509
1355,000000	0,319048
1354,000000	0,316874
1353,000000	0,315177
1352,000000	0,313625
1351,000000	0,312132
1350,000000	0,311096
1349,000000	0,310814
1348,000000	0,310922
1347,000000	0,310613
1346,000000	0,309327
1345,000000	0,306990
1344,000000	0,303487
1343,000000	0,298223
1342,000000	0,290927
1341,000000	0,283005
1340,000000	0,277448
1339,000000	0,276621
1338,000000	0,280152
1337,000000	0,285425
1336,000000	0,289808
1335,000000	0,292068
1334,000000	0,292206
1333,000000	0,290899
1332,000000	0,289262
1331,000000	0,288320
1330,000000	0,288239
1329,000000	0,288340
1328,000000	0,287965
1327,000000	0,286937
1326,000000	0,285258
1325,000000	0,282940
1324,000000	0,280257
1323,000000	0,277662
1322,000000	0,275261
1321,000000	0,272778
1320,000000	0,270215
1319,000000	0,268066
1318,000000	0,266636
1317,000000	0,265546
1316,000000	0,264214
1315,000000	0,262608
1314,000000	0,261280
1313,000000	0,260784
1312,000000	0,261171
1311,000000	0,261881
1310,000000	0,262090
1309,000000	0,261362
1308,000000	0,260004
1307,000000	0,258653
1306,000000	0,257531
1305,000000	0,256384
1304,000000	0,255067
1303,000000	0,253800
1302,000000	0,252772
1301,000000	0,251811
1300,000000	0,250601
1299,000000	0,249035
1298,000000	0,247267
1297,000000	0,245594
1296,000000	0,244275
1295,000000	0,243264
1294,000000	0,242212
1293,000000	0,240914
1292,000000	0,239648
1291,000000	0,238733
1290,000000	0,237844
1289,000000	0,236249
1288,000000	0,233793
1287,000000	0,231216
1286,000000	0,229313
1285,000000	0,228156
1284,000000	0,227343
1283,000000	0,226607
1282,000000	0,225945
1281,000000	0,225363
1280,000000	0,224829
1279,000000	0,224328
1278,000000	0,223749
1277,000000	0,222795
1276,000000	0,221205
1275,000000	0,219017
1274,000000	0,216530
1273,000000	0,214055
1272,000000	0,211787
1271,000000	0,209791
1270,000000	0,208041
1269,000000	0,206530
1268,000000	0,205364
1267,000000	0,204587
1266,000000	0,203884
1265,000000	0,202702
1264,000000	0,200797
1263,000000	0,198536
1262,000000	0,196460
1261,000000	0,194716
1260,000000	0,193108
1259,000000	0,191586
1258,000000	0,190461
1257,000000	0,190022
1256,000000	0,190116
1255,000000	0,190263
1254,000000	0,190041
1253,000000	0,189240
1252,000000	0,187788
1251,000000	0,185801
1250,000000	0,183744
1249,000000	0,182248
1248,000000	0,181507
1247,000000	0,180950
1246,000000	0,179699
1245,000000	0,177399
1244,000000	0,174499
1243,000000	0,171785
1242,000000	0,169843
1241,000000	0,168904
1240,000000	0,168788
1239,000000	0,168849
1238,000000	0,168268
1237,000000	0,166728
1236,000000	0,164730
1235,000000	0,163121
1234,000000	0,162325
1233,000000	0,162124
1232,000000	0,161960
1231,000000	0,161288
1230,000000	0,159827
1229,000000	0,157723
1228,000000	0,155439
1227,000000	0,153333
1226,000000	0,151411
1225,000000	0,149622
1224,000000	0,148161
1223,000000	0,147197
1222,000000	0,146444
1221,000000	0,145358
1220,000000	0,143780
1219,000000	0,142050
1218,000000	0,140440
1217,000000	0,138814
1216,000000	0,136984
1215,000000	0,135124
1214,000000	0,133599
1213,000000	0,132528
1212,000000	0,131733
1211,000000	0,130987
1210,000000	0,130110
1209,000000	0,128910
1208,000000	0,127272
1207,000000	0,125376
1206,000000	0,123720
1205,000000	0,122737
1204,000000	0,122335
1203,000000	0,121925
1202,000000	0,120964
1201,000000	0,119431
1200,000000	0,117735
1199,000000	0,116250
1198,000000	0,115021
1197,000000	0,113821
1196,000000	0,112359
1195,000000	0,110457
1194,000000	0,108207
1193,000000	0,106001
1192,000000	0,104286
1191,000000	0,103231
1190,000000	0,102640
1189,000000	0,102170
1188,000000	0,101614
1187,000000	0,100964
1186,000000	0,100267
1185,000000	0,099519
1184,000000	0,098722
1183,000000	0,097962
1182,000000	0,097337
1181,000000	0,096736
1180,000000	0,095779
1179,000000	0,094169
1178,000000	0,092196
1177,000000	0,090716
1176,000000	0,090351
1175,000000	0,090749
1174,000000	0,090865
1173,000000	0,089973
1172,000000	0,088214
1171,000000	0,086163
1170,000000	0,084177
1169,000000	0,082378
1168,000000	0,080917
1167,000000	0,079849
1166,000000	0,078908
1165,000000	0,077730
1164,000000	0,076335
1163,000000	0,075171
1162,000000	0,074635
1161,000000	0,074640
1160,000000	0,074633
1159,000000	0,073947
1158,000000	0,072263
1157,000000	0,069980
1156,000000	0,068114
1155,000000	0,067511
1154,000000	0,068014
1153,000000	0,068568
1152,000000	0,068250
1151,000000	0,067050
1150,000000	0,065573
1149,000000	0,064284
1148,000000	0,063250
1147,000000	0,062411
1146,000000	0,061707
1145,000000	0,060956
1144,000000	0,059947
1143,000000	0,058772
1142,000000	0,057833
1141,000000	0,057342
1140,000000	0,057015
1139,000000	0,056411
1138,000000	0,055444
1137,000000	0,054293
1136,000000	0,052953
1135,000000	0,051236
1134,000000	0,049234
1133,000000	0,047493
1132,000000	0,046538
1131,000000	0,046323
1130,000000	0,046311
1129,000000	0,046084
1128,000000	0,045726
1127,000000	0,045542
1126,000000	0,045578
1125,000000	0,045500
1124,000000	0,044899
1123,000000	0,043672
1122,000000	0,042052
1121,000000	0,040405
1120,000000	0,039102
1119,000000	0,038429
1118,000000	0,038409
1117,000000	0,038691
1116,000000	0,038766
1115,000000	0,038345
1114,000000	0,037506
1113,000000	0,036542
1112,000000	0,035729
1111,000000	0,035240
1110,000000	0,035045
1109,000000	0,034790
1108,000000	0,034014
1107,000000	0,032669
1106,000000	0,031223
1105,000000	0,030166
1104,000000	0,029575
1103,000000	0,029193
1102,000000	0,028740
1101,000000	0,028076
1100,000000	0,027170
1099,000000	0,026148
1098,000000	0,025335
1097,000000	0,024971
1096,000000	0,024887
1095,000000	0,024681
1094,000000	0,024211
1093,000000	0,023575
1092,000000	0,022793
1091,000000	0,021840
1090,000000	0,020901
1089,000000	0,020296
1088,000000	0,020151
1087,000000	0,020159
1086,000000	0,019913
1085,000000	0,019347
1084,000000	0,018543
1083,000000	0,017570
1082,000000	0,016644
1081,000000	0,016055
1080,000000	0,015754
1079,000000	0,015240
1078,000000	0,014193
1077,000000	0,012932
1076,000000	0,011989
1075,000000	0,011536
1074,000000	0,011415
1073,000000	0,011417
1072,000000	0,011379
1071,000000	0,011178
1070,000000	0,010819
1069,000000	0,010406
1068,000000	0,009972
1067,000000	0,009455
1066,000000	0,008872
1065,000000	0,008346
1064,000000	0,007944
1063,000000	0,007721
1062,000000	0,007714
1061,000000	0,007730
1060,000000	0,007446
1059,000000	0,006834
1058,000000	0,006382
1057,000000	0,006647
1056,000000	0,007515
1055,000000	0,008230
1054,000000	0,008290
1053,000000	0,007836
1052,000000	0,007186
1051,000000	0,006622
1050,000000	0,006446
1049,000000	0,006588
1048,000000	0,006473
1047,000000	0,005684
1046,000000	0,004664
1045,000000	0,004253
1044,000000	0,004533
1043,000000	0,004892
1042,000000	0,005048
1041,000000	0,005169
1040,000000	0,005376
1039,000000	0,005663
1038,000000	0,006115
1037,000000	0,006761
1036,000000	0,007208
1035,000000	0,006872
1034,000000	0,005826
1033,000000	0,004935
1032,000000	0,004788
1031,000000	0,005218
1030,000000	0,005889
1029,000000	0,006702
1028,000000	0,007410
1027,000000	0,007503
1026,000000	0,006883
1025,000000	0,006166
1024,000000	0,005970
1023,000000	0,006327
1022,000000	0,007112
1021,000000	0,008149
1020,000000	0,009057
1019,000000	0,009559
1018,000000	0,009717
1017,000000	0,009748
1016,000000	0,009869
1015,000000	0,010205
1014,000000	0,010852
1013,000000	0,011884
1012,000000	0,013151
1011,000000	0,014299
1010,000000	0,015094
1009,000000	0,015574
1008,000000	0,015920
1007,000000	0,016219
1006,000000	0,016517
1005,000000	0,017061
1004,000000	0,018077
1003,000000	0,019571
1002,000000	0,021412
1001,000000	0,023407
1000,000000	0,025363
999,000000	0,027183
998,000000	0,028880
997,000000	0,030448
996,000000	0,031791
995,000000	0,032903
994,000000	0,034048
993,000000	0,035572
992,000000	0,037586
991,000000	0,039957
990,000000	0,042513
989,000000	0,045098
988,000000	0,047536
987,000000	0,049801
986,000000	0,052135
985,000000	0,054696
984,000000	0,057248
983,000000	0,059489
982,000000	0,061587
981,000000	0,064076
980,000000	0,067228
979,000000	0,070898
978,000000	0,074806
977,000000	0,078681
976,000000	0,082239
975,000000	0,085324
974,000000	0,088190
973,000000	0,091409
972,000000	0,095374
971,000000	0,100092
970,000000	0,105417
969,000000	0,111166
968,000000	0,117014
967,000000	0,122609
966,000000	0,127898
965,000000	0,133074
964,000000	0,138277
963,000000	0,143599
962,000000	0,149269
961,000000	0,155485
960,000000	0,162120
959,000000	0,168970
958,000000	0,176201
957,000000	0,184129
956,000000	0,192660
955,000000	0,201376
954,000000	0,210159
953,000000	0,219323
952,000000	0,229062
951,000000	0,239205
950,000000	0,249499
949,000000	0,259838
948,000000	0,270283
947,000000	0,281110
946,000000	0,292814
945,000000	0,305657
944,000000	0,319299
943,000000	0,333235
942,000000	0,347404
941,000000	0,362066
940,000000	0,377328
939,000000	0,393232
938,000000	0,410058
937,000000	0,427873
936,000000	0,446134
935,000000	0,464415
934,000000	0,483378
933,000000	0,504287
932,000000	0,527516
931,000000	0,552391
930,000000	0,578406
929,000000	0,605739
928,000000	0,634639
927,000000	0,665090
926,000000	0,697474
925,000000	0,732760
924,000000	0,771465
923,000000	0,813225
922,000000	0,857467
921,000000	0,904138
920,000000	0,953570
919,000000	1,005961
918,000000	1,061749
917,000000	1,121710
916,000000	1,186495
915,000000	1,256284
914,000000	1,330698
913,000000	1,409078
912,000000	1,490463
911,000000	1,573824
910,000000	1,658333
909,000000	1,742877
908,000000	1,825512
907,000000	1,903908
906,000000	1,976647
905,000000	2,043658
904,000000	2,105724
903,000000	2,163928
902,000000	2,219621
901,000000	2,274194
900,000000	2,328310
899,000000	2,381855
898,000000	2,434111
897,000000	2,483624
896,000000	2,528272
895,000000	2,566062
894,000000	2,596465
893,000000	2,620358
892,000000	2,638970
891,000000	2,653599
890,000000	2,665617
889,000000	2,676094
888,000000	2,684881
887,000000	2,690801
886,000000	2,693072
885,000000	2,691868
884,000000	2,688076
883,000000	2,683177
882,000000	2,679275
881,000000	2,678252
880,000000	2,680889
879,000000	2,687441
878,000000	2,698731
877,000000	2,715688
876,000000	2,737628
875,000000	2,762467
874,000000	2,788540
873,000000	2,815346
872,000000	2,842430
871,000000	2,868707
870,000000	2,893463
869,000000	2,916920
868,000000	2,939414
867,000000	2,960737
866,000000	2,980695
865,000000	2,999330
864,000000	3,016242
863,000000	3,030530
862,000000	3,041727
861,000000	3,050329
860,000000	3,057062
859,000000	3,062372
858,000000	3,066759
857,000000	3,070720
856,000000	3,074306
855,000000	3,077412
854,000000	3,080638
853,000000	3,084969
852,000000	3,090491
851,000000	3,096379
850,000000	3,102208
849,000000	3,108235
848,000000	3,114217
847,000000	3,119123
846,000000	3,122423
845,000000	3,124695
844,000000	3,126546
843,000000	3,127860
842,000000	3,128423
841,000000	3,128401
840,000000	3,127816
839,000000	3,126290
838,000000	3,123663
837,000000	3,119951
836,000000	3,114600
835,000000	3,106638
834,000000	3,095636
833,000000	3,081736
832,000000	3,064597
831,000000	3,043596
830,000000	3,019356
829,000000	2,994003
828,000000	2,969793
827,000000	2,948558
826,000000	2,932669
825,000000	2,924936
824,000000	2,927023
823,000000	2,938397
822,000000	2,957198
821,000000	2,980924
820,000000	3,006141
819,000000	3,029216
818,000000	3,048006
817,000000	3,062372
816,000000	3,072722
815,000000	3,079181
814,000000	3,082248
813,000000	3,083070
812,000000	3,082443
811,000000	3,080381
810,000000	3,076970
809,000000	3,072488
808,000000	3,066698
807,000000	3,059136
806,000000	3,050320
805,000000	3,041574
804,000000	3,033478
803,000000	3,025709
802,000000	3,018392
801,000000	3,012314
800,000000	3,007698
799,000000	3,004268
798,000000	3,002600
797,000000	3,003807
796,000000	3,007708
795,000000	3,012836
794,000000	3,018624
793,000000	3,025935
792,000000	3,035148
791,000000	3,045428
790,000000	3,056174
789,000000	3,067569
788,000000	3,079200
787,000000	3,089831
786,000000	3,098995
785,000000	3,107236
784,000000	3,114500
783,000000	3,120025
782,000000	3,124194
781,000000	3,128550
780,000000	3,133508
779,000000	3,137870
778,000000	3,141094
777,000000	3,144112
776,000000	3,147339
775,000000	3,149863
774,000000	3,151217
773,000000	3,151999
772,000000	3,152205
771,000000	3,150987
770,000000	3,148788
769,000000	3,147518
768,000000	3,147759
767,000000	3,147809
766,000000	3,146324
765,000000	3,143894
764,000000	3,141241
763,000000	3,138105
762,000000	3,134849
761,000000	3,133006
760,000000	3,133086
759,000000	3,133783
758,000000	3,134218
757,000000	3,134986
756,000000	3,136173
755,000000	3,136582
754,000000	3,135846
753,000000	3,135146
752,000000	3,134895
751,000000	3,133881
750,000000	3,131510
749,000000	3,128595
748,000000	3,125170
747,000000	3,120047
746,000000	3,113375
745,000000	3,107001
744,000000	3,101491
743,000000	3,095589
742,000000	3,089495
741,000000	3,085485
740,000000	3,084021
739,000000	3,082382
738,000000	3,078578
737,000000	3,073628
736,000000	3,068594
735,000000	3,062619
734,000000	3,055383
733,000000	3,048330
732,000000	3,041898
731,000000	3,034775
730,000000	3,027154
729,000000	3,021144
728,000000	3,016695
727,000000	3,011192
726,000000	3,004105
725,000000	2,996453
724,000000	2,983978
723,000000	2,958216
722,000000	2,920090
721,000000	2,886532
720,000000	2,876297
719,000000	2,890721
718,000000	2,913807
717,000000	2,929291
716,000000	2,932369
715,000000	2,927197
714,000000	2,919449
713,000000	2,912516
712,000000	2,906644
711,000000	2,900035
710,000000	2,891600
709,000000	2,882031
708,000000	2,871404
707,000000	2,858311
706,000000	2,842867
705,000000	2,827849
704,000000	2,814635
703,000000	2,800889
702,000000	2,784244
701,000000	2,765170
700,000000	2,744238
699,000000	2,720192
698,000000	2,693221
697,000000	2,666242
696,000000	2,640443
695,000000	2,613386
694,000000	2,583723
693,000000	2,552917
692,000000	2,520294
691,000000	2,482445
690,000000	2,441124
689,000000	2,405298
688,000000	2,381023
687,000000	2,365121
686,000000	2,352709
685,000000	2,343965
684,000000	2,338525
683,000000	2,331357
682,000000	2,320326
681,000000	2,310816
680,000000	2,306545
679,000000	2,304025
678,000000	2,301568
677,000000	2,304121
676,000000	2,312946
675,000000	2,322250
674,000000	2,328228
673,000000	2,318216
672,000000	2,241784
671,000000	2,034017
670,000000	1,714305
669,000000	1,440770
668,000000	1,404512
667,000000	1,643449
666,000000	1,995676
665,000000	2,257667
664,000000	2,354423
663,000000	2,346092
662,000000	2,312701
661,000000	2,282110
660,000000	2,252842
659,000000	2,228148
658,000000	2,211822
657,000000	2,198323
656,000000	2,183533
655,000000	2,171968
654,000000	2,166183
653,000000	2,160098
652,000000	2,148809
651,000000	2,135745
650,000000	2,126298
649,000000	2,122349
648,000000	2,125110
647,000000	2,135032
646,000000	2,146817
645,000000	2,152194
644,000000	2,149515
643,000000	2,143912
642,000000	2,137021
641,000000	2,124045
640,000000	2,101167
639,000000	2,068074
638,000000	2,020505
637,000000	1,948640
636,000000	1,846014
635,000000	1,715449
634,000000	1,566753
633,000000	1,416217
632,000000	1,289862
631,000000	1,217371
630,000000	1,214965
629,000000	1,274505
628,000000	1,372159
627,000000	1,483458
626,000000	1,589843
625,000000	1,679730
624,000000	1,749318
623,000000	1,800972
622,000000	1,836598
621,000000	1,854213
620,000000	1,853126
619,000000	1,840873
618,000000	1,830740
617,000000	1,832437
616,000000	1,845851
615,000000	1,862543
614,000000	1,873053
613,000000	1,873590
612,000000	1,866966
611,000000	1,857689
610,000000	1,847055
609,000000	1,834053
608,000000	1,819127
607,000000	1,804501
606,000000	1,791668
605,000000	1,780690
604,000000	1,771454
603,000000	1,763386
602,000000	1,754838
601,000000	1,745005
600,000000	1,735725
599,000000	1,728895
598,000000	1,723107
597,000000	1,714994
596,000000	1,702981
595,000000	1,687349
594,000000	1,668465
593,000000	1,648334
592,000000	1,632323
591,000000	1,624899
590,000000	1,623522
589,000000	1,620535
588,000000	1,611161
587,000000	1,597008
586,000000	1,581674
585,000000	1,566321
584,000000	1,550171
583,000000	1,532627
582,000000	1,514105
581,000000	1,496210
580,000000	1,480502
579,000000	1,465797
578,000000	1,448408
577,000000	1,427562
576,000000	1,408368
575,000000	1,395504
574,000000	1,385649
573,000000	1,370122
572,000000	1,344123
571,000000	1,309187
570,000000	1,267692
569,000000	1,220553
568,000000	1,170650
567,000000	1,122951
566,000000	1,079526
565,000000	1,038388
564,000000	0,998389
563,000000	0,961612
562,000000	0,929499
561,000000	0,900395
560,000000	0,872462
559,000000	0,845925
558,000000	0,820854
557,000000	0,796086
556,000000	0,771764
555,000000	0,749882
554,000000	0,730881
553,000000	0,712378
552,000000	0,692893
551,000000	0,673818
550,000000	0,656325
549,000000	0,639244
548,000000	0,621792
547,000000	0,605743
546,000000	0,592780
545,000000	0,581836
544,000000	0,570878
543,000000	0,559470
542,000000	0,547964
541,000000	0,536099
540,000000	0,523840
539,000000	0,511974
538,000000	0,500578
537,000000	0,488693
536,000000	0,476447
535,000000	0,465541
534,000000	0,456514
533,000000	0,447688
532,000000	0,437900
531,000000	0,427941
530,000000	0,417998
529,000000	0,406102
528,000000	0,391265
527,000000	0,376190
526,000000	0,364806
525,000000	0,358037
524,000000	0,353568
523,000000	0,348494
522,000000	0,340805
521,000000	0,329819
520,000000	0,316877
519,000000	0,304941
518,000000	0,296255
517,000000	0,290900
516,000000	0,287828
515,000000	0,285852
514,000000	0,283041
513,000000	0,277129
512,000000	0,267728
511,000000	0,256888
510,000000	0,246500
509,000000	0,236736
508,000000	0,227615
507,000000	0,219988
506,000000	0,213620
505,000000	0,206385
504,000000	0,197142
503,000000	0,187784
502,000000	0,180688
501,000000	0,175350
500,000000	0,169397
499,000000	0,161791
498,000000	0,153260
497,000000	0,144426
496,000000	0,135197
495,000000	0,125558
494,000000	0,115568
493,000000	0,105011
492,000000	0,094042
491,000000	0,083451
490,000000	0,073422
489,000000	0,062897
488,000000	0,051233
487,000000	0,039492
486,000000	0,029665
485,000000	0,024792
484,000000	0,031596
483,000000	0,061111
482,000000	0,120959
481,000000	0,205927
480,000000	0,297936
479,000000	0,377064
478,000000	0,433004
477,000000	0,466267
476,000000	0,481403
475,000000	0,482445
474,000000	0,474828
473,000000	0,467146
472,000000	0,467292
471,000000	0,475762
470,000000	0,485364
469,000000	0,489299
468,000000	0,488182
467,000000	0,487242
466,000000	0,488410
465,000000	0,488488
464,000000	0,484943
463,000000	0,479361
462,000000	0,473177
461,000000	0,463401
460,000000	0,446736
459,000000	0,427320
458,000000	0,416131
457,000000	0,420427
456,000000	0,435583
455,000000	0,449288
454,000000	0,453647
453,000000	0,451334
452,000000	0,449646
451,000000	0,451079
450,000000	0,451637
449,000000	0,447467
448,000000	0,439732
447,000000	0,431836
446,000000	0,424498
445,000000	0,415988
444,000000	0,406276
443,000000	0,398001
442,000000	0,392823
441,000000	0,388589
440,000000	0,380662
439,000000	0,365699
438,000000	0,344281
437,000000	0,320941
436,000000	0,301318
435,000000	0,287862
434,000000	0,278306
433,000000	0,268899
432,000000	0,258461
431,000000	0,248246
430,000000	0,238956
429,000000	0,229805
428,000000	0,220132
427,000000	0,210001
426,000000	0,199429
425,000000	0,188681
424,000000	0,178809
423,000000	0,169738
422,000000	0,158514
421,000000	0,142569
420,000000	0,125280
419,000000	0,114883
418,000000	0,116215
417,000000	0,125464
416,000000	0,134303
415,000000	0,137453
414,000000	0,134952
413,000000	0,129341
412,000000	0,123092
411,000000	0,117667
410,000000	0,113115
409,000000	0,108533
408,000000	0,103722
407,000000	0,099726
406,000000	0,097119
405,000000	0,094768
404,000000	0,091097
403,000000	0,085578
402,000000	0,078233
401,000000	0,068920
400,000000	0,058381
399,000000	0,049105
398,000000	0,043680
397,000000	0,042496
396,000000	0,043783
395,000000	0,045449
394,000000	0,046198
393,000000	0,045429
392,000000	0,043234
391,000000	0,040470
390,000000	0,038330
389,000000	0,037691
388,000000	0,038721
387,000000	0,040595
386,000000	0,041751
385,000000	0,041206
384,000000	0,039646
383,000000	0,038428
382,000000	0,037596
381,000000	0,035872
380,000000	0,032590
379,000000	0,028368
378,000000	0,023907
377,000000	0,019544
376,000000	0,016194
375,000000	0,015135
374,000000	0,016096
373,000000	0,017029
372,000000	0,016595
371,000000	0,015501
370,000000	0,014809
369,000000	0,014356
368,000000	0,013613
367,000000	0,012781
366,000000	0,012114
365,000000	0,011302
364,000000	0,010226
363,000000	0,009339
362,000000	0,008748
361,000000	0,007876
360,000000	0,006583
359,000000	0,005587
358,000000	0,005241
357,000000	0,004915
356,000000	0,004063
355,000000	0,002987
354,000000	0,002076
353,000000	0,001412
352,000000	0,001259
351,000000	0,001498
350,000000	0,001797
349,000000	0,002336
348,000000	0,003113
347,000000	0,003730
346,000000	0,003679
345,000000	0,003228
344,000000	0,002689
343,000000	0,001967
342,000000	0,001072
341,000000	0,000360
340,000000	0,000558
339,000000	0,000573
338,000000	0,000765
337,000000	0,001156
336,000000	0,001135
335,000000	0,000830
334,000000	0,000685
333,000000	0,001624
332,000000	0,003111
331,000000	0,003839
330,000000	0,003353
329,000000	0,002512
328,000000	0,002263
327,000000	0,002075
326,000000	0,001150
325,000000	0,000504
324,000000	0,001441
323,000000	0,001661
322,000000	0,001016
321,000000	0,000321
320,000000	0,001338
319,000000	0,002146
318,000000	0,002411
317,000000	0,002165
316,000000	0,002052
315,000000	0,003091
314,000000	0,004423
313,000000	0,004759
312,000000	0,003630
311,000000	0,001792
310,000000	0,000497
309,000000	0,000515
308,000000	0,001367
307,000000	0,002625
306,000000	0,003098
305,000000	0,002846
304,000000	0,002103
303,000000	0,000741
302,000000	0,001468
301,000000	0,002218
300,000000	0,002073
299,000000	0,002369
298,000000	0,003031
297,000000	0,003429
296,000000	0,003283
295,000000	0,002632
294,000000	0,002599
293,000000	0,002865
292,000000	0,002707
291,000000	0,002615
290,000000	0,002297
289,000000	0,002145
288,000000	0,002445
287,000000	0,002936
286,000000	0,003290
285,000000	0,003440
284,000000	0,003439
283,000000	0,002929
282,000000	0,001939
281,000000	0,001818
280,000000	0,002513
279,000000	0,002733
278,000000	0,001999
277,000000	0,001153
276,000000	0,002016
275,000000	0,002767
274,000000	0,002741
273,000000	0,002179
272,000000	0,001413
271,000000	0,000674
270,000000	0,001034
269,000000	0,001714
268,000000	0,002130
267,000000	0,002299
266,000000	0,002930
265,000000	0,003540
264,000000	0,002985
263,000000	0,001932
262,000000	0,001212
261,000000	0,000517
260,000000	0,000570
259,000000	0,001606
258,000000	0,002054
257,000000	0,002174
256,000000	0,002044
255,000000	0,001304
254,000000	0,000803
253,000000	0,001687
252,000000	0,001898
251,000000	0,001936
250,000000	0,001732
249,000000	0,000870
248,000000	0,000860
247,000000	0,001127
246,000000	0,000584
245,000000	0,000923
244,000000	0,001073
243,000000	0,000793
242,000000	0,000758
241,000000	0,001493
240,000000	0,002296
239,000000	0,002228
238,000000	0,001357
237,000000	0,000771
236,000000	0,000791
235,000000	0,000812
234,000000	0,000536
233,000000	0,001057
232,000000	0,001266
231,000000	0,001030
230,000000	0,001291
229,000000	0,001908
228,000000	0,001877
227,000000	0,001252
226,000000	0,000679
225,000000	0,000598
224,000000	0,000610
223,000000	0,000875
222,000000	0,001271
221,000000	0,001300
220,000000	0,000975
219,000000	0,001025
218,000000	0,000917
217,000000	0,000830
216,000000	0,001039
215,000000	0,001417
214,000000	0,002054
213,000000	0,002242
212,000000	0,001545
211,000000	0,000524
210,000000	0,000411
209,000000	0,001219
208,000000	0,001475
207,000000	0,001316
206,000000	0,001101
205,000000	0,000697
204,000000	0,000604
203,000000	0,000840
202,000000	0,000616
201,000000	0,000570
200,000000	0,000735
