PE IR       SUBTECH     SPECTRUM    ASCII       PEDS        4.00        
   -1
GaAs reflectivity spectrum.ASC
25/04/22
10:37:56.00
25/04/22
10:37:56.00
Praktikum
Sample 028 By Praktikum date Dienstag, April 22 2025
200,000000
#HDR
-1
-1
#GR
cm-1
EGY
1.0
0.0
4000,000000
-1,000000
3801
8
3,329433
0,000259
#DATA
4000,000000	2,433544
3999,000000	2,432841
3998,000000	2,431180
3997,000000	2,429312
3996,000000	2,428415
3995,000000	2,428911
3994,000000	2,430026
3993,000000	2,430888
3992,000000	2,431798
3991,000000	2,433966
3990,000000	2,437926
3989,000000	2,442648
3988,000000	2,446344
3987,000000	2,447907
3986,000000	2,447447
3985,000000	2,445891
3984,000000	2,444456
3983,000000	2,444236
3982,000000	2,445598
3981,000000	2,447612
3980,000000	2,448390
3979,000000	2,446373
3978,000000	2,441668
3977,000000	2,436176
3976,000000	2,432323
3975,000000	2,431483
3974,000000	2,433252
3973,000000	2,436063
3972,000000	2,438624
3971,000000	2,440921
3970,000000	2,443976
3969,000000	2,448520
3968,000000	2,453616
3967,000000	2,456640
3966,000000	2,455075
3965,000000	2,448842
3964,000000	2,441028
3963,000000	2,435871
3962,000000	2,435555
3961,000000	2,438885
3960,000000	2,443035
3959,000000	2,446232
3958,000000	2,448585
3957,000000	2,450566
3956,000000	2,451159
3955,000000	2,447654
3954,000000	2,437105
3953,000000	2,418472
3952,000000	2,394541
3951,000000	2,372372
3950,000000	2,360424
3949,000000	2,362700
3948,000000	2,373961
3947,000000	2,381835
3946,000000	2,377030
3945,000000	2,362773
3944,000000	2,353489
3943,000000	2,362300
3942,000000	2,389209
3941,000000	2,422226
3940,000000	2,448821
3939,000000	2,463577
3938,000000	2,465396
3937,000000	2,451827
3936,000000	2,420664
3935,000000	2,377228
3934,000000	2,336311
3933,000000	2,314589
3932,000000	2,319728
3931,000000	2,345432
3930,000000	2,375096
3929,000000	2,390995
3928,000000	2,385283
3927,000000	2,365608
3926,000000	2,348841
3925,000000	2,346857
3924,000000	2,356154
3923,000000	2,361853
3922,000000	2,351410
3921,000000	2,324752
3920,000000	2,294068
3919,000000	2,276382
3918,000000	2,285235
3917,000000	2,323400
3916,000000	2,380219
3915,000000	2,437267
3914,000000	2,479548
3913,000000	2,503502
3912,000000	2,513559
3911,000000	2,511369
3910,000000	2,489258
3909,000000	2,434866
3908,000000	2,343073
3907,000000	2,225192
3906,000000	2,107109
3905,000000	2,015712
3904,000000	1,964014
3903,000000	1,948733
3902,000000	1,962207
3901,000000	2,004006
3900,000000	2,078545
3899,000000	2,180341
3898,000000	2,285726
3897,000000	2,360728
3896,000000	2,379582
3895,000000	2,340646
3894,000000	2,271121
3893,000000	2,215433
3892,000000	2,207127
3891,000000	2,240581
3890,000000	2,271049
3889,000000	2,255251
3888,000000	2,194283
3887,000000	2,133744
3886,000000	2,116229
3885,000000	2,138518
3884,000000	2,161239
3883,000000	2,157732
3882,000000	2,145180
3881,000000	2,163317
3880,000000	2,225874
3879,000000	2,300142
3878,000000	2,336783
3877,000000	2,315892
3876,000000	2,259510
3875,000000	2,198622
3874,000000	2,139742
3873,000000	2,072323
3872,000000	2,003590
3871,000000	1,967486
3870,000000	1,988318
3869,000000	2,045808
3868,000000	2,090667
3867,000000	2,094615
3866,000000	2,075487
3865,000000	2,073101
3864,000000	2,109411
3863,000000	2,176830
3862,000000	2,252260
3861,000000	2,311190
3860,000000	2,328511
3859,000000	2,278520
3858,000000	2,145632
3857,000000	1,942599
3856,000000	1,721951
3855,000000	1,563395
3854,000000	1,533835
3853,000000	1,645773
3852,000000	1,850666
3851,000000	2,072873
3850,000000	2,253550
3849,000000	2,367262
3848,000000	2,412347
3847,000000	2,398874
3846,000000	2,346201
3845,000000	2,277820
3844,000000	2,208608
3843,000000	2,137375
3842,000000	2,056071
3841,000000	1,967286
3840,000000	1,891713
3839,000000	1,856987
3838,000000	1,878005
3837,000000	1,944524
3836,000000	2,027051
3835,000000	2,097991
3834,000000	2,150464
3833,000000	2,197128
3832,000000	2,249987
3831,000000	2,303703
3830,000000	2,341036
3829,000000	2,354037
3828,000000	2,352575
3827,000000	2,345692
3826,000000	2,318981
3825,000000	2,243709
3824,000000	2,117513
3823,000000	1,988879
3822,000000	1,923382
3821,000000	1,941268
3820,000000	1,996200
3819,000000	2,027674
3818,000000	2,026787
3817,000000	2,041381
3816,000000	2,118275
3815,000000	2,251955
3814,000000	2,392907
3813,000000	2,489820
3812,000000	2,516421
3811,000000	2,470244
3810,000000	2,370530
3809,000000	2,260582
3808,000000	2,190802
3807,000000	2,178103
3806,000000	2,183988
3805,000000	2,150847
3804,000000	2,066775
3803,000000	1,985507
3802,000000	1,973206
3801,000000	2,040900
3800,000000	2,139468
3799,000000	2,216297
3798,000000	2,265264
3797,000000	2,316158
3796,000000	2,390129
3795,000000	2,476708
3794,000000	2,550465
3793,000000	2,597276
3792,000000	2,620475
3791,000000	2,629098
3790,000000	2,626625
3789,000000	2,611086
3788,000000	2,583063
3787,000000	2,552267
3786,000000	2,532552
3785,000000	2,528009
3784,000000	2,524506
3783,000000	2,501693
3782,000000	2,457162
3781,000000	2,415640
3780,000000	2,409714
3779,000000	2,450233
3778,000000	2,517860
3777,000000	2,581098
3776,000000	2,616974
3775,000000	2,614674
3774,000000	2,570061
3773,000000	2,489583
3772,000000	2,399226
3771,000000	2,335765
3770,000000	2,318456
3769,000000	2,334024
3768,000000	2,356675
3767,000000	2,378687
3766,000000	2,410024
3765,000000	2,449671
3764,000000	2,471739
3763,000000	2,449856
3762,000000	2,388106
3761,000000	2,320601
3760,000000	2,282478
3759,000000	2,283885
3758,000000	2,304737
3757,000000	2,306056
3756,000000	2,250346
3755,000000	2,125599
3754,000000	1,957454
3753,000000	1,798167
3752,000000	1,699946
3751,000000	1,687701
3750,000000	1,741881
3749,000000	1,802188
3748,000000	1,805629
3747,000000	1,742246
3746,000000	1,674623
3745,000000	1,687066
3744,000000	1,806436
3743,000000	1,978345
3742,000000	2,117092
3741,000000	2,167520
3740,000000	2,123820
3739,000000	2,013536
3738,000000	1,881018
3737,000000	1,774905
3736,000000	1,728497
3735,000000	1,746380
3734,000000	1,814676
3733,000000	1,919148
3732,000000	2,043792
3731,000000	2,158742
3730,000000	2,228104
3729,000000	2,238988
3728,000000	2,213816
3727,000000	2,187695
3726,000000	2,179052
3725,000000	2,185798
3724,000000	2,202727
3723,000000	2,231765
3722,000000	2,275850
3721,000000	2,331842
3720,000000	2,392233
3719,000000	2,448023
3718,000000	2,484566
3717,000000	2,478513
3716,000000	2,409218
3715,000000	2,280542
3714,000000	2,130554
3713,000000	2,014360
3712,000000	1,973040
3711,000000	2,013551
3710,000000	2,113488
3709,000000	2,237878
3708,000000	2,351805
3707,000000	2,426835
3706,000000	2,446404
3705,000000	2,414879
3704,000000	2,360426
3703,000000	2,323276
3702,000000	2,331873
3701,000000	2,383345
3700,000000	2,448541
3699,000000	2,497737
3698,000000	2,520829
3697,000000	2,521848
3696,000000	2,499522
3695,000000	2,441757
3694,000000	2,340400
3693,000000	2,205707
3692,000000	2,066308
3691,000000	1,961205
3690,000000	1,928272
3689,000000	1,987487
3688,000000	2,123708
3687,000000	2,288948
3686,000000	2,430713
3685,000000	2,519463
3684,000000	2,552014
3683,000000	2,538025
3682,000000	2,488256
3681,000000	2,407213
3680,000000	2,288973
3679,000000	2,128345
3678,000000	1,950012
3677,000000	1,817454
3676,000000	1,789883
3675,000000	1,859347
3674,000000	1,947332
3673,000000	1,979040
3672,000000	1,955620
3671,000000	1,946564
3670,000000	2,015425
3669,000000	2,162919
3668,000000	2,337672
3667,000000	2,484974
3666,000000	2,579737
3665,000000	2,626458
3664,000000	2,642527
3663,000000	2,643333
3662,000000	2,632120
3661,000000	2,598033
3660,000000	2,528547
3659,000000	2,431065
3658,000000	2,341880
3657,000000	2,301473
3656,000000	2,311388
3655,000000	2,319480
3654,000000	2,258705
3653,000000	2,108733
3652,000000	1,916609
3651,000000	1,760683
3650,000000	1,699457
3649,000000	1,748779
3648,000000	1,889725
3647,000000	2,080895
3646,000000	2,269742
3645,000000	2,412787
3644,000000	2,496362
3643,000000	2,535191
3642,000000	2,551227
3641,000000	2,556828
3640,000000	2,555382
3639,000000	2,547184
3638,000000	2,529478
3637,000000	2,498734
3636,000000	2,457380
3635,000000	2,410083
3634,000000	2,346737
3633,000000	2,241025
3632,000000	2,083177
3631,000000	1,916026
3630,000000	1,820197
3629,000000	1,852186
3628,000000	1,996341
3627,000000	2,180479
3626,000000	2,330871
3625,000000	2,409324
3624,000000	2,409847
3623,000000	2,344351
3622,000000	2,240773
3621,000000	2,143441
3620,000000	2,095848
3619,000000	2,112954
3618,000000	2,169635
3617,000000	2,221210
3616,000000	2,239453
3615,000000	2,229888
3614,000000	2,215701
3613,000000	2,208984
3612,000000	2,202113
3611,000000	2,186912
3610,000000	2,175179
3609,000000	2,192884
3608,000000	2,253547
3607,000000	2,341844
3606,000000	2,423693
3605,000000	2,470683
3604,000000	2,475972
3603,000000	2,453405
3602,000000	2,425505
3601,000000	2,408528
3600,000000	2,403053
3599,000000	2,397528
3598,000000	2,382496
3597,000000	2,362164
3596,000000	2,352332
3595,000000	2,365891
3594,000000	2,398075
3593,000000	2,423339
3592,000000	2,409463
3591,000000	2,342519
3590,000000	2,245406
3589,000000	2,169280
3588,000000	2,159599
3587,000000	2,224523
3586,000000	2,333171
3585,000000	2,441567
3584,000000	2,520179
3583,000000	2,563357
3582,000000	2,581223
3581,000000	2,587097
3580,000000	2,589737
3579,000000	2,592379
3578,000000	2,595471
3577,000000	2,599512
3576,000000	2,605532
3575,000000	2,612914
3574,000000	2,616034
3573,000000	2,601886
3572,000000	2,553177
3571,000000	2,460625
3570,000000	2,338678
3569,000000	2,228056
3568,000000	2,174644
3567,000000	2,199312
3566,000000	2,284350
3565,000000	2,388664
3564,000000	2,475832
3563,000000	2,532234
3562,000000	2,564715
3561,000000	2,587132
3560,000000	2,608436
3559,000000	2,628863
3558,000000	2,642449
3557,000000	2,642045
3556,000000	2,625040
3555,000000	2,597656
3554,000000	2,573710
3553,000000	2,565544
3552,000000	2,572591
3551,000000	2,579685
3550,000000	2,569497
3549,000000	2,538902
3548,000000	2,502787
3547,000000	2,482534
3546,000000	2,490773
3545,000000	2,525209
3544,000000	2,573009
3543,000000	2,619091
3542,000000	2,652302
3541,000000	2,667669
3540,000000	2,666239
3539,000000	2,654274
3538,000000	2,641793
3537,000000	2,638305
3536,000000	2,646505
3535,000000	2,659581
3534,000000	2,666024
3533,000000	2,658166
3532,000000	2,636451
3531,000000	2,607429
3530,000000	2,579510
3529,000000	2,559650
3528,000000	2,550455
3527,000000	2,549182
3526,000000	2,551524
3525,000000	2,557222
3524,000000	2,570312
3523,000000	2,592679
3522,000000	2,619525
3521,000000	2,642995
3520,000000	2,659165
3519,000000	2,669428
3518,000000	2,676362
3517,000000	2,680583
3516,000000	2,681399
3515,000000	2,677969
3514,000000	2,669106
3513,000000	2,654155
3512,000000	2,635973
3511,000000	2,621902
3510,000000	2,618942
3509,000000	2,626511
3508,000000	2,634633
3507,000000	2,631442
3506,000000	2,613922
3505,000000	2,591726
3504,000000	2,579939
3503,000000	2,587256
3502,000000	2,609994
3501,000000	2,635959
3500,000000	2,653835
3499,000000	2,659925
3498,000000	2,658568
3497,000000	2,657284
3496,000000	2,660961
3495,000000	2,669176
3494,000000	2,677705
3493,000000	2,682079
3492,000000	2,680118
3491,000000	2,672756
3490,000000	2,663724
3489,000000	2,657824
3488,000000	2,657428
3487,000000	2,659819
3486,000000	2,659126
3485,000000	2,652018
3484,000000	2,641503
3483,000000	2,634797
3482,000000	2,637351
3481,000000	2,648797
3480,000000	2,663600
3479,000000	2,675157
3478,000000	2,680150
3477,000000	2,680067
3476,000000	2,679090
3475,000000	2,680348
3474,000000	2,684026
3473,000000	2,688386
3472,000000	2,691659
3471,000000	2,692918
3470,000000	2,692154
3469,000000	2,690260
3468,000000	2,688410
3467,000000	2,686844
3466,000000	2,684598
3465,000000	2,680983
3464,000000	2,677112
3463,000000	2,675432
3462,000000	2,677662
3461,000000	2,683364
3460,000000	2,690319
3459,000000	2,696141
3458,000000	2,699727
3457,000000	2,701561
3456,000000	2,702844
3455,000000	2,704393
3454,000000	2,706110
3453,000000	2,706482
3452,000000	2,702207
3451,000000	2,689780
3450,000000	2,669738
3449,000000	2,649336
3448,000000	2,638615
3447,000000	2,641932
3446,000000	2,654147
3445,000000	2,666403
3444,000000	2,674565
3443,000000	2,680860
3442,000000	2,688448
3441,000000	2,697037
3440,000000	2,704240
3439,000000	2,708969
3438,000000	2,712026
3437,000000	2,714310
3436,000000	2,715834
3435,000000	2,716354
3434,000000	2,716135
3433,000000	2,716018
3432,000000	2,716991
3431,000000	2,719591
3430,000000	2,723408
3429,000000	2,727263
3428,000000	2,730015
3427,000000	2,730925
3426,000000	2,729254
3425,000000	2,724171
3424,000000	2,715877
3423,000000	2,706903
3422,000000	2,701603
3421,000000	2,703624
3420,000000	2,713269
3419,000000	2,727021
3418,000000	2,739738
3417,000000	2,747938
3416,000000	2,751547
3415,000000	2,752886
3414,000000	2,754124
3413,000000	2,755709
3412,000000	2,756902
3411,000000	2,757206
3410,000000	2,756987
3409,000000	2,756981
3408,000000	2,757530
3407,000000	2,758281
3406,000000	2,758591
3405,000000	2,758340
3404,000000	2,758291
3403,000000	2,759264
3402,000000	2,760868
3401,000000	2,761618
3400,000000	2,760739
3399,000000	2,759396
3398,000000	2,759374
3397,000000	2,760680
3396,000000	2,761406
3395,000000	2,760350
3394,000000	2,759048
3393,000000	2,760473
3392,000000	2,765871
3391,000000	2,773387
3390,000000	2,779709
3389,000000	2,782693
3388,000000	2,782531
3387,000000	2,781188
3386,000000	2,781034
3385,000000	2,783496
3384,000000	2,788260
3383,000000	2,793553
3382,000000	2,797427
3381,000000	2,799063
3380,000000	2,799071
3379,000000	2,798702
3378,000000	2,798882
3377,000000	2,799834
3376,000000	2,801276
3375,000000	2,802751
3374,000000	2,803785
3373,000000	2,803894
3372,000000	2,802678
3371,000000	2,800047
3370,000000	2,796462
3369,000000	2,792877
3368,000000	2,790343
3367,000000	2,789523
3366,000000	2,790415
3365,000000	2,792421
3364,000000	2,794771
3363,000000	2,797024
3362,000000	2,799229
3361,000000	2,801546
3360,000000	2,803749
3359,000000	2,805335
3358,000000	2,806243
3357,000000	2,807213
3356,000000	2,809121
3355,000000	2,811953
3354,000000	2,814756
3353,000000	2,816701
3352,000000	2,817936
3351,000000	2,819234
3350,000000	2,821036
3349,000000	2,823124
3348,000000	2,825052
3347,000000	2,826505
3346,000000	2,827210
3345,000000	2,826967
3344,000000	2,826019
3343,000000	2,825051
3342,000000	2,824493
3341,000000	2,823972
3340,000000	2,822800
3339,000000	2,820944
3338,000000	2,819279
3337,000000	2,818881
3336,000000	2,820304
3335,000000	2,823375
3334,000000	2,827276
3333,000000	2,830766
3332,000000	2,832752
3331,000000	2,833003
3330,000000	2,832265
3329,000000	2,831592
3328,000000	2,831608
3327,000000	2,832361
3326,000000	2,833618
3325,000000	2,835140
3324,000000	2,836795
3323,000000	2,838521
3322,000000	2,840150
3321,000000	2,841367
3320,000000	2,842021
3319,000000	2,842383
3318,000000	2,842784
3317,000000	2,843088
3316,000000	2,842948
3315,000000	2,842548
3314,000000	2,842470
3313,000000	2,842652
3312,000000	2,842160
3311,000000	2,840607
3310,000000	2,839339
3309,000000	2,840402
3308,000000	2,844400
3307,000000	2,849876
3306,000000	2,854762
3305,000000	2,857935
3304,000000	2,859362
3303,000000	2,859433
3302,000000	2,858615
3301,000000	2,857497
3300,000000	2,856771
3299,000000	2,857004
3298,000000	2,858275
3297,000000	2,859883
3296,000000	2,860578
3295,000000	2,859481
3294,000000	2,857010
3293,000000	2,854751
3292,000000	2,854333
3291,000000	2,856367
3290,000000	2,860254
3289,000000	2,864601
3288,000000	2,867827
3287,000000	2,868901
3286,000000	2,867962
3285,000000	2,866227
3284,000000	2,865060
3283,000000	2,864992
3282,000000	2,865538
3281,000000	2,865788
3280,000000	2,865093
3279,000000	2,863363
3278,000000	2,860920
3277,000000	2,858322
3276,000000	2,856405
3275,000000	2,856315
3274,000000	2,858973
3273,000000	2,864167
3272,000000	2,870352
3271,000000	2,875678
3270,000000	2,879293
3269,000000	2,881480
3268,000000	2,882711
3267,000000	2,883003
3266,000000	2,882306
3265,000000	2,881052
3264,000000	2,879984
3263,000000	2,879576
3262,000000	2,879811
3261,000000	2,880420
3260,000000	2,880974
3259,000000	2,880838
3258,000000	2,879490
3257,000000	2,877285
3256,000000	2,875734
3255,000000	2,876593
3254,000000	2,880380
3253,000000	2,885865
3252,000000	2,891117
3251,000000	2,894765
3250,000000	2,896153
3249,000000	2,894868
3248,000000	2,891019
3247,000000	2,886107
3246,000000	2,882755
3245,000000	2,882872
3244,000000	2,886113
3243,000000	2,890484
3242,000000	2,894204
3241,000000	2,896657
3240,000000	2,897960
3239,000000	2,898368
3238,000000	2,898257
3237,000000	2,898162
3236,000000	2,898412
3235,000000	2,898892
3234,000000	2,899333
3233,000000	2,899754
3232,000000	2,900436
3231,000000	2,901608
3230,000000	2,903272
3229,000000	2,905298
3228,000000	2,907547
3227,000000	2,909865
3226,000000	2,911969
3225,000000	2,913353
3224,000000	2,913404
3223,000000	2,911883
3222,000000	2,909457
3221,000000	2,907622
3220,000000	2,907693
3219,000000	2,909540
3218,000000	2,911501
3217,000000	2,911975
3216,000000	2,911132
3215,000000	2,910698
3214,000000	2,911919
3213,000000	2,914231
3212,000000	2,916368
3211,000000	2,918233
3210,000000	2,920935
3209,000000	2,925056
3208,000000	2,929726
3207,000000	2,933556
3206,000000	2,935913
3205,000000	2,936984
3204,000000	2,937123
3203,000000	2,936492
3202,000000	2,935001
3201,000000	2,932449
3200,000000	2,929161
3199,000000	2,926609
3198,000000	2,926703
3197,000000	2,929938
3196,000000	2,934629
3195,000000	2,938508
3194,000000	2,940775
3193,000000	2,942152
3192,000000	2,943437
3191,000000	2,944622
3190,000000	2,945278
3189,000000	2,945092
3188,000000	2,944084
3187,000000	2,942838
3186,000000	2,942510
3185,000000	2,944051
3184,000000	2,947065
3183,000000	2,949713
3182,000000	2,949963
3181,000000	2,947236
3180,000000	2,943070
3179,000000	2,940317
3178,000000	2,941154
3177,000000	2,945381
3176,000000	2,950728
3175,000000	2,954957
3174,000000	2,957471
3173,000000	2,958810
3172,000000	2,959383
3171,000000	2,959396
3170,000000	2,959509
3169,000000	2,960509
3168,000000	2,962200
3167,000000	2,963500
3166,000000	2,963894
3165,000000	2,964235
3164,000000	2,965684
3163,000000	2,968272
3162,000000	2,970846
3161,000000	2,972278
3160,000000	2,972439
3159,000000	2,972156
3158,000000	2,972390
3157,000000	2,973436
3156,000000	2,974803
3155,000000	2,975885
3154,000000	2,976621
3153,000000	2,977413
3152,000000	2,978532
3151,000000	2,979856
3150,000000	2,981152
3149,000000	2,982344
3148,000000	2,983440
3147,000000	2,984359
3146,000000	2,984940
3145,000000	2,985128
3144,000000	2,985205
3143,000000	2,985777
3142,000000	2,987288
3141,000000	2,989454
3140,000000	2,991438
3139,000000	2,992656
3138,000000	2,993059
3137,000000	2,992538
3136,000000	2,990709
3135,000000	2,987897
3134,000000	2,985872
3133,000000	2,986616
3132,000000	2,990143
3131,000000	2,994191
3130,000000	2,996328
3129,000000	2,996064
3128,000000	2,994682
3127,000000	2,993480
3126,000000	2,992662
3125,000000	2,991830
3124,000000	2,991013
3123,000000	2,990814
3122,000000	2,991563
3121,000000	2,992663
3120,000000	2,993137
3119,000000	2,992805
3118,000000	2,992624
3117,000000	2,993736
3116,000000	2,996414
3115,000000	3,000028
3114,000000	3,003667
3113,000000	3,006581
3112,000000	3,008379
3111,000000	3,009303
3110,000000	3,010214
3109,000000	3,011917
3108,000000	3,014344
3107,000000	3,016425
3106,000000	3,016689
3105,000000	3,014149
3104,000000	3,009242
3103,000000	3,004161
3102,000000	3,001741
3101,000000	3,003151
3100,000000	3,006745
3099,000000	3,009630
3098,000000	3,010505
3097,000000	3,010653
3096,000000	3,012232
3095,000000	3,016053
3094,000000	3,021066
3093,000000	3,025611
3092,000000	3,028802
3091,000000	3,030844
3090,000000	3,032286
3089,000000	3,033277
3088,000000	3,033641
3087,000000	3,033406
3086,000000	3,032824
3085,000000	3,031828
3084,000000	3,030035
3083,000000	3,027555
3082,000000	3,025424
3081,000000	3,024906
3080,000000	3,026579
3079,000000	3,030203
3078,000000	3,034977
3077,000000	3,039613
3076,000000	3,042738
3075,000000	3,043906
3074,000000	3,043925
3073,000000	3,043699
3072,000000	3,043003
3071,000000	3,040940
3070,000000	3,037306
3069,000000	3,032937
3068,000000	3,028980
3067,000000	3,026485
3066,000000	3,026441
3065,000000	3,029306
3064,000000	3,034264
3063,000000	3,039511
3062,000000	3,043428
3061,000000	3,045222
3060,000000	3,044743
3059,000000	3,042591
3058,000000	3,040441
3057,000000	3,040376
3056,000000	3,043294
3055,000000	3,048095
3054,000000	3,052595
3053,000000	3,055077
3052,000000	3,055143
3051,000000	3,053839
3050,000000	3,053093
3049,000000	3,054432
3048,000000	3,057741
3047,000000	3,061412
3046,000000	3,063838
3045,000000	3,064569
3044,000000	3,064211
3043,000000	3,063748
3042,000000	3,064089
3041,000000	3,065539
3040,000000	3,067313
3039,000000	3,067938
3038,000000	3,066538
3037,000000	3,063444
3036,000000	3,059432
3035,000000	3,054918
3034,000000	3,050407
3033,000000	3,047255
3032,000000	3,047078
3031,000000	3,050238
3030,000000	3,055237
3029,000000	3,059766
3028,000000	3,062242
3027,000000	3,062490
3026,000000	3,061434
3025,000000	3,060255
3024,000000	3,059628
3023,000000	3,059414
3022,000000	3,058961
3021,000000	3,057692
3020,000000	3,055502
3019,000000	3,052791
3018,000000	3,050312
3017,000000	3,048832
3016,000000	3,048768
3015,000000	3,050076
3014,000000	3,052590
3013,000000	3,056412
3012,000000	3,061792
3011,000000	3,068563
3010,000000	3,075751
3009,000000	3,081918
3008,000000	3,085909
3007,000000	3,087496
3006,000000	3,087506
3005,000000	3,087406
3004,000000	3,088491
3003,000000	3,091023
3002,000000	3,094112
3001,000000	3,096538
3000,000000	3,097797
2999,000000	3,098183
2998,000000	3,097971
2997,000000	3,096993
2996,000000	3,095277
2995,000000	3,093686
2994,000000	3,093333
2993,000000	3,094402
2992,000000	3,095958
2991,000000	3,096990
2990,000000	3,097296
2989,000000	3,097296
2988,000000	3,097374
2987,000000	3,097559
2986,000000	3,097613
2985,000000	3,097242
2984,000000	3,096374
2983,000000	3,095270
2982,000000	3,094214
2981,000000	3,093122
2980,000000	3,091670
2979,000000	3,089762
2978,000000	3,087487
2977,000000	3,084700
2976,000000	3,081133
2975,000000	3,077005
2974,000000	3,073026
2973,000000	3,069480
2972,000000	3,065737
2971,000000	3,060979
2970,000000	3,055120
2969,000000	3,048777
2968,000000	3,042669
2967,000000	3,037358
2966,000000	3,033187
2965,000000	3,030043
2964,000000	3,027299
2963,000000	3,024430
2962,000000	3,021564
2961,000000	3,019210
2960,000000	3,017591
2959,000000	3,016540
2958,000000	3,015913
2957,000000	3,015714
2956,000000	3,015844
2955,000000	3,016019
2954,000000	3,016003
2953,000000	3,015810
2952,000000	3,015630
2951,000000	3,015597
2950,000000	3,015524
2949,000000	3,014854
2948,000000	3,013071
2947,000000	3,010289
2946,000000	3,007262
2945,000000	3,004600
2944,000000	3,002046
2943,000000	2,998623
2942,000000	2,993486
2941,000000	2,986680
2940,000000	2,979179
2939,000000	2,972159
2938,000000	2,966073
2937,000000	2,960529
2936,000000	2,955164
2935,000000	2,950324
2934,000000	2,946474
2933,000000	2,943194
2932,000000	2,939486
2931,000000	2,935048
2930,000000	2,930624
2929,000000	2,926976
2928,000000	2,924240
2927,000000	2,922541
2926,000000	2,922467
2925,000000	2,924456
2924,000000	2,928201
2923,000000	2,933180
2922,000000	2,939397
2921,000000	2,947066
2920,000000	2,955987
2919,000000	2,965659
2918,000000	2,975776
2917,000000	2,986095
2916,000000	2,996097
2915,000000	3,005229
2914,000000	3,013341
2913,000000	3,020564
2912,000000	3,026997
2911,000000	3,032842
2910,000000	3,038537
2909,000000	3,044286
2908,000000	3,049674
2907,000000	3,054211
2906,000000	3,058084
2905,000000	3,061958
2904,000000	3,066162
2903,000000	3,070475
2902,000000	3,074612
2901,000000	3,078531
2900,000000	3,082299
2899,000000	3,085985
2898,000000	3,089673
2897,000000	3,093347
2896,000000	3,096830
2895,000000	3,099993
2894,000000	3,102877
2893,000000	3,105454
2892,000000	3,107503
2891,000000	3,108986
2890,000000	3,110335
2889,000000	3,112045
2888,000000	3,114097
2887,000000	3,116003
2886,000000	3,117291
2885,000000	3,117772
2884,000000	3,117543
2883,000000	3,116948
2882,000000	3,116375
2881,000000	3,115884
2880,000000	3,115215
2879,000000	3,114298
2878,000000	3,113431
2877,000000	3,112731
2876,000000	3,111716
2875,000000	3,109765
2874,000000	3,106743
2873,000000	3,102895
2872,000000	3,098398
2871,000000	3,093325
2870,000000	3,087835
2869,000000	3,082014
2868,000000	3,075713
2867,000000	3,068888
2866,000000	3,061962
2865,000000	3,055498
2864,000000	3,049661
2863,000000	3,044318
2862,000000	3,039617
2861,000000	3,036203
2860,000000	3,034859
2859,000000	3,036049
2858,000000	3,039620
2857,000000	3,044731
2856,000000	3,050199
2855,000000	3,055195
2854,000000	3,059668
2853,000000	3,064133
2852,000000	3,069207
2851,000000	3,075286
2850,000000	3,082323
2849,000000	3,089784
2848,000000	3,097072
2847,000000	3,104138
2846,000000	3,111401
2845,000000	3,119027
2844,000000	3,126664
2843,000000	3,133934
2842,000000	3,140769
2841,000000	3,147057
2840,000000	3,152478
2839,000000	3,156976
2838,000000	3,161004
2837,000000	3,164972
2836,000000	3,168773
2835,000000	3,172133
2834,000000	3,175078
2833,000000	3,177806
2832,000000	3,180437
2831,000000	3,183172
2830,000000	3,186318
2829,000000	3,189843
2828,000000	3,193218
2827,000000	3,195991
2826,000000	3,198201
2825,000000	3,199989
2824,000000	3,201272
2823,000000	3,202141
2822,000000	3,203154
2821,000000	3,204730
2820,000000	3,206542
2819,000000	3,207965
2818,000000	3,208886
2817,000000	3,209682
2816,000000	3,210621
2815,000000	3,211658
2814,000000	3,212663
2813,000000	3,213500
2812,000000	3,214050
2811,000000	3,214417
2810,000000	3,214926
2809,000000	3,215728
2808,000000	3,216652
2807,000000	3,217602
2806,000000	3,218742
2805,000000	3,220056
2804,000000	3,221142
2803,000000	3,221736
2802,000000	3,222094
2801,000000	3,222544
2800,000000	3,223054
2799,000000	3,223563
2798,000000	3,224315
2797,000000	3,225440
2796,000000	3,226564
2795,000000	3,227297
2794,000000	3,227824
2793,000000	3,228606
2792,000000	3,229801
2791,000000	3,231331
2790,000000	3,233211
2789,000000	3,235354
2788,000000	3,237339
2787,000000	3,238852
2786,000000	3,240178
2785,000000	3,241820
2784,000000	3,243782
2783,000000	3,245581
2782,000000	3,246833
2781,000000	3,247536
2780,000000	3,247973
2779,000000	3,248592
2778,000000	3,249731
2777,000000	3,251170
2776,000000	3,252222
2775,000000	3,252535
2774,000000	3,252532
2773,000000	3,252770
2772,000000	3,253225
2771,000000	3,253594
2770,000000	3,254004
2769,000000	3,254959
2768,000000	3,256709
2767,000000	3,258968
2766,000000	3,261099
2765,000000	3,262406
2764,000000	3,262567
2763,000000	3,262064
2762,000000	3,261893
2761,000000	3,262557
2760,000000	3,263578
2759,000000	3,264199
2758,000000	3,264223
2757,000000	3,263970
2756,000000	3,263876
2755,000000	3,264448
2754,000000	3,266085
2753,000000	3,268505
2752,000000	3,270684
2751,000000	3,271804
2750,000000	3,271990
2749,000000	3,271819
2748,000000	3,271523
2747,000000	3,271068
2746,000000	3,270597
2745,000000	3,270299
2744,000000	3,270166
2743,000000	3,270280
2742,000000	3,270943
2741,000000	3,272108
2740,000000	3,273080
2739,000000	3,273304
2738,000000	3,273118
2737,000000	3,273204
2736,000000	3,273655
2735,000000	3,274132
2734,000000	3,274608
2733,000000	3,275334
2732,000000	3,276224
2731,000000	3,276889
2730,000000	3,277195
2729,000000	3,277316
2728,000000	3,277370
2727,000000	3,277425
2726,000000	3,277737
2725,000000	3,278513
2724,000000	3,279527
2723,000000	3,280350
2722,000000	3,280883
2721,000000	3,281370
2720,000000	3,282028
2719,000000	3,282950
2718,000000	3,284169
2717,000000	3,285512
2716,000000	3,286567
2715,000000	3,287091
2714,000000	3,287227
2713,000000	3,287131
2712,000000	3,286740
2711,000000	3,286238
2710,000000	3,286313
2709,000000	3,287471
2708,000000	3,289340
2707,000000	3,291091
2706,000000	3,292346
2705,000000	3,293291
2704,000000	3,294153
2703,000000	3,295023
2702,000000	3,295995
2701,000000	3,297061
2700,000000	3,297965
2699,000000	3,298451
2698,000000	3,298544
2697,000000	3,298390
2696,000000	3,298079
2695,000000	3,297839
2694,000000	3,298063
2693,000000	3,298816
2692,000000	3,299680
2691,000000	3,300394
2690,000000	3,301294
2689,000000	3,302705
2688,000000	3,304260
2687,000000	3,305278
2686,000000	3,305603
2685,000000	3,305691
2684,000000	3,306053
2683,000000	3,306932
2682,000000	3,308214
2681,000000	3,309340
2680,000000	3,309587
2679,000000	3,308855
2678,000000	3,307916
2677,000000	3,307585
2676,000000	3,307915
2675,000000	3,308473
2674,000000	3,308983
2673,000000	3,309310
2672,000000	3,309214
2671,000000	3,308646
2670,000000	3,308032
2669,000000	3,307827
2668,000000	3,308003
2667,000000	3,308325
2666,000000	3,308832
2665,000000	3,309620
2664,000000	3,310466
2663,000000	3,311090
2662,000000	3,311550
2661,000000	3,311978
2660,000000	3,312181
2659,000000	3,311946
2658,000000	3,311535
2657,000000	3,311482
2656,000000	3,312026
2655,000000	3,312975
2654,000000	3,313913
2653,000000	3,314356
2652,000000	3,314083
2651,000000	3,313584
2650,000000	3,313744
2649,000000	3,314709
2648,000000	3,315495
2647,000000	3,315163
2646,000000	3,314007
2645,000000	3,313102
2644,000000	3,312997
2643,000000	3,313332
2642,000000	3,313535
2641,000000	3,313404
2640,000000	3,313169
2639,000000	3,313304
2638,000000	3,314096
2637,000000	3,315209
2636,000000	3,315948
2635,000000	3,316155
2634,000000	3,316407
2633,000000	3,317110
2632,000000	3,317883
2631,000000	3,318207
2630,000000	3,318147
2629,000000	3,318052
2628,000000	3,318041
2627,000000	3,318247
2626,000000	3,319040
2625,000000	3,320435
2624,000000	3,321702
2623,000000	3,322134
2622,000000	3,321862
2621,000000	3,321425
2620,000000	3,320980
2619,000000	3,320503
2618,000000	3,320347
2617,000000	3,320929
2616,000000	3,322093
2615,000000	3,323329
2614,000000	3,324365
2613,000000	3,325069
2612,000000	3,325165
2611,000000	3,324662
2610,000000	3,324223
2609,000000	3,324467
2608,000000	3,325117
2607,000000	3,325433
2606,000000	3,325252
2605,000000	3,325005
2604,000000	3,324929
2603,000000	3,324902
2602,000000	3,324913
2601,000000	3,325086
2600,000000	3,325324
2599,000000	3,325467
2598,000000	3,325668
2597,000000	3,326092
2596,000000	3,326368
2595,000000	3,325934
2594,000000	3,324966
2593,000000	3,324404
2592,000000	3,324934
2591,000000	3,326229
2590,000000	3,327305
2589,000000	3,327384
2588,000000	3,326439
2587,000000	3,325070
2586,000000	3,323860
2585,000000	3,322856
2584,000000	3,321850
2583,000000	3,321112
2582,000000	3,321344
2581,000000	3,322735
2580,000000	3,324502
2579,000000	3,325693
2578,000000	3,326041
2577,000000	3,325792
2576,000000	3,325181
2575,000000	3,324495
2574,000000	3,324278
2573,000000	3,324941
2572,000000	3,326319
2571,000000	3,327859
2570,000000	3,329031
2569,000000	3,329433
2568,000000	3,328930
2567,000000	3,327924
2566,000000	3,327038
2565,000000	3,326287
2564,000000	3,325097
2563,000000	3,323413
2562,000000	3,322142
2561,000000	3,322026
2560,000000	3,322629
2559,000000	3,322984
2558,000000	3,322740
2557,000000	3,322195
2556,000000	3,321693
2555,000000	3,321607
2554,000000	3,322416
2553,000000	3,324109
2552,000000	3,325789
2551,000000	3,326500
2550,000000	3,326264
2549,000000	3,325840
2548,000000	3,325753
2547,000000	3,326007
2546,000000	3,326435
2545,000000	3,326799
2544,000000	3,326778
2543,000000	3,326356
2542,000000	3,326009
2541,000000	3,326145
2540,000000	3,326616
2539,000000	3,327057
2538,000000	3,327349
2537,000000	3,327403
2536,000000	3,326973
2535,000000	3,326139
2534,000000	3,325520
2533,000000	3,325516
2532,000000	3,325749
2531,000000	3,325714
2530,000000	3,325521
2529,000000	3,325471
2528,000000	3,325356
2527,000000	3,324857
2526,000000	3,324280
2525,000000	3,324232
2524,000000	3,324798
2523,000000	3,325567
2522,000000	3,326214
2521,000000	3,326543
2520,000000	3,326231
2519,000000	3,325119
2518,000000	3,323613
2517,000000	3,322345
2516,000000	3,321622
2515,000000	3,321464
2514,000000	3,321853
2513,000000	3,322501
2512,000000	3,322789
2511,000000	3,322419
2510,000000	3,321848
2509,000000	3,321622
2508,000000	3,321618
2507,000000	3,321348
2506,000000	3,320652
2505,000000	3,319676
2504,000000	3,318515
2503,000000	3,317344
2502,000000	3,316543
2501,000000	3,316219
2500,000000	3,315912
2499,000000	3,315174
2498,000000	3,314089
2497,000000	3,312878
2496,000000	3,311480
2495,000000	3,309984
2494,000000	3,308969
2493,000000	3,308846
2492,000000	3,309228
2491,000000	3,309449
2490,000000	3,309369
2489,000000	3,309226
2488,000000	3,309136
2487,000000	3,309208
2486,000000	3,309658
2485,000000	3,310286
2484,000000	3,310298
2483,000000	3,309235
2482,000000	3,307691
2481,000000	3,306594
2480,000000	3,306206
2479,000000	3,306304
2478,000000	3,306777
2477,000000	3,307404
2476,000000	3,307558
2475,000000	3,306853
2474,000000	3,305752
2473,000000	3,304903
2472,000000	3,304253
2471,000000	3,303484
2470,000000	3,302851
2469,000000	3,302823
2468,000000	3,303215
2467,000000	3,303404
2466,000000	3,303174
2465,000000	3,302698
2464,000000	3,301984
2463,000000	3,300991
2462,000000	3,300039
2461,000000	3,299438
2460,000000	3,298977
2459,000000	3,298347
2458,000000	3,297794
2457,000000	3,297689
2456,000000	3,297776
2455,000000	3,297547
2454,000000	3,297111
2453,000000	3,297026
2452,000000	3,297427
2451,000000	3,297956
2450,000000	3,298363
2449,000000	3,298616
2448,000000	3,298595
2447,000000	3,298269
2446,000000	3,297985
2445,000000	3,298051
2444,000000	3,298246
2443,000000	3,298202
2442,000000	3,297989
2441,000000	3,297803
2440,000000	3,297461
2439,000000	3,296793
2438,000000	3,296199
2437,000000	3,296146
2436,000000	3,296402
2435,000000	3,296439
2434,000000	3,296319
2433,000000	3,296490
2432,000000	3,296915
2431,000000	3,297100
2430,000000	3,296789
2429,000000	3,296002
2428,000000	3,294579
2427,000000	3,292426
2426,000000	3,290125
2425,000000	3,288626
2424,000000	3,288294
2423,000000	3,288776
2422,000000	3,289679
2421,000000	3,290837
2420,000000	3,291999
2419,000000	3,292839
2418,000000	3,293242
2417,000000	3,293207
2416,000000	3,292589
2415,000000	3,291392
2414,000000	3,290114
2413,000000	3,289304
2412,000000	3,288909
2411,000000	3,288485
2410,000000	3,287868
2409,000000	3,287215
2408,000000	3,286616
2407,000000	3,286175
2406,000000	3,286212
2405,000000	3,286803
2404,000000	3,287290
2403,000000	3,286788
2402,000000	3,285145
2401,000000	3,283048
2400,000000	3,281344
2399,000000	3,280607
2398,000000	3,281014
2397,000000	3,282096
2396,000000	3,282827
2395,000000	3,282472
2394,000000	3,281112
2393,000000	3,278959
2392,000000	3,275499
2391,000000	3,269598
2390,000000	3,260106
2389,000000	3,245272
2388,000000	3,221923
2387,000000	3,186219
2386,000000	3,134609
2385,000000	3,064582
2384,000000	2,974195
2383,000000	2,862689
2382,000000	2,732098
2381,000000	2,586715
2380,000000	2,431956
2379,000000	2,272911
2378,000000	2,114203
2377,000000	1,959853
2376,000000	1,812419
2375,000000	1,673080
2374,000000	1,542449
2373,000000	1,421292
2372,000000	1,310003
2371,000000	1,208742
2370,000000	1,117817
2369,000000	1,037756
2368,000000	0,968727
2367,000000	0,909877
2366,000000	0,860488
2365,000000	0,820412
2364,000000	0,789385
2363,000000	0,766682
2362,000000	0,751699
2361,000000	0,745376
2360,000000	0,749492
2359,000000	0,765123
2358,000000	0,793136
2357,000000	0,835070
2356,000000	0,893615
2355,000000	0,972003
2354,000000	1,074688
2353,000000	1,206605
2352,000000	1,363836
2351,000000	1,520689
2350,000000	1,629964
2349,000000	1,649051
2348,000000	1,572630
2347,000000	1,440061
2346,000000	1,306860
2345,000000	1,208402
2344,000000	1,149179
2343,000000	1,117655
2342,000000	1,103660
2341,000000	1,101339
2340,000000	1,106165
2339,000000	1,114673
2338,000000	1,126430
2337,000000	1,141555
2336,000000	1,157466
2335,000000	1,169807
2334,000000	1,176613
2333,000000	1,180616
2332,000000	1,187670
2331,000000	1,203663
2330,000000	1,231455
2329,000000	1,268829
2328,000000	1,309445
2327,000000	1,346933
2326,000000	1,378865
2325,000000	1,407648
2324,000000	1,438330
2323,000000	1,476229
2322,000000	1,525018
2321,000000	1,585716
2320,000000	1,656852
2319,000000	1,734949
2318,000000	1,814539
2317,000000	1,888644
2316,000000	1,951720
2315,000000	2,003486
2314,000000	2,049117
2313,000000	2,095242
2312,000000	2,146022
2311,000000	2,202679
2310,000000	2,264657
2309,000000	2,330165
2308,000000	2,396532
2307,000000	2,461254
2306,000000	2,522475
2305,000000	2,578479
2304,000000	2,628065
2303,000000	2,671945
2302,000000	2,712412
2301,000000	2,750983
2300,000000	2,787187
2299,000000	2,820452
2298,000000	2,851721
2297,000000	2,882262
2296,000000	2,912054
2295,000000	2,940313
2294,000000	2,966905
2293,000000	2,992178
2292,000000	3,016218
2291,000000	3,039264
2290,000000	3,062090
2289,000000	3,085136
2288,000000	3,107841
2287,000000	3,129318
2286,000000	3,148857
2285,000000	3,165021
2284,000000	3,175552
2283,000000	3,179384
2282,000000	3,177949
2281,000000	3,173804
2280,000000	3,168527
2279,000000	3,162845
2278,000000	3,157622
2277,000000	3,153477
2276,000000	3,150191
2275,000000	3,147481
2274,000000	3,145795
2273,000000	3,145356
2272,000000	3,145304
2271,000000	3,144838
2270,000000	3,144561
2269,000000	3,145549
2268,000000	3,147718
2267,000000	3,150242
2266,000000	3,152933
2265,000000	3,156055
2264,000000	3,159266
2263,000000	3,161988
2262,000000	3,164552
2261,000000	3,167788
2260,000000	3,171654
2259,000000	3,175284
2258,000000	3,178288
2257,000000	3,181156
2256,000000	3,184401
2255,000000	3,188009
2254,000000	3,191668
2253,000000	3,195000
2252,000000	3,197680
2251,000000	3,199733
2250,000000	3,201521
2249,000000	3,203228
2248,000000	3,204783
2247,000000	3,206432
2246,000000	3,208663
2245,000000	3,211239
2244,000000	3,213166
2243,000000	3,214052
2242,000000	3,214702
2241,000000	3,215860
2240,000000	3,217248
2239,000000	3,218396
2238,000000	3,219479
2237,000000	3,220589
2236,000000	3,221115
2235,000000	3,220721
2234,000000	3,220168
2233,000000	3,220300
2232,000000	3,220890
2231,000000	3,221253
2230,000000	3,221285
2229,000000	3,221128
2228,000000	3,220561
2227,000000	3,219597
2226,000000	3,219000
2225,000000	3,219331
2224,000000	3,220066
2223,000000	3,220368
2222,000000	3,220125
2221,000000	3,219534
2220,000000	3,218450
2219,000000	3,216928
2218,000000	3,215703
2217,000000	3,215311
2216,000000	3,215376
2215,000000	3,215413
2214,000000	3,215572
2213,000000	3,215863
2212,000000	3,215543
2211,000000	3,214199
2210,000000	3,212670
2209,000000	3,211968
2208,000000	3,211935
2207,000000	3,211803
2206,000000	3,211331
2205,000000	3,210597
2204,000000	3,209458
2203,000000	3,208131
2202,000000	3,207513
2201,000000	3,207968
2200,000000	3,208482
2199,000000	3,207970
2198,000000	3,206730
2197,000000	3,205722
2196,000000	3,205196
2195,000000	3,204975
2194,000000	3,205280
2193,000000	3,206093
2192,000000	3,206386
2191,000000	3,205177
2190,000000	3,202946
2189,000000	3,200993
2188,000000	3,199882
2187,000000	3,199435
2186,000000	3,199692
2185,000000	3,200789
2184,000000	3,202182
2183,000000	3,202993
2182,000000	3,202909
2181,000000	3,202140
2180,000000	3,200881
2179,000000	3,199439
2178,000000	3,198333
2177,000000	3,197633
2176,000000	3,196710
2175,000000	3,195261
2174,000000	3,193870
2173,000000	3,192979
2172,000000	3,192085
2171,000000	3,190710
2170,000000	3,189366
2169,000000	3,188681
2168,000000	3,188317
2167,000000	3,187607
2166,000000	3,186623
2165,000000	3,185728
2164,000000	3,184736
2163,000000	3,183348
2162,000000	3,181848
2161,000000	3,180624
2160,000000	3,179569
2159,000000	3,178612
2158,000000	3,178061
2157,000000	3,177788
2156,000000	3,176911
2155,000000	3,175127
2154,000000	3,173478
2153,000000	3,172991
2152,000000	3,173307
2151,000000	3,173503
2150,000000	3,173345
2149,000000	3,172878
2148,000000	3,171722
2147,000000	3,169837
2146,000000	3,168185
2145,000000	3,167554
2144,000000	3,167391
2143,000000	3,166768
2142,000000	3,165819
2141,000000	3,165172
2140,000000	3,164654
2139,000000	3,163617
2138,000000	3,162086
2137,000000	3,160655
2136,000000	3,159682
2135,000000	3,159309
2134,000000	3,159687
2133,000000	3,160482
2132,000000	3,160792
2131,000000	3,160237
2130,000000	3,159436
2129,000000	3,158829
2128,000000	3,157918
2127,000000	3,156423
2126,000000	3,155166
2125,000000	3,154880
2124,000000	3,154994
2123,000000	3,154564
2122,000000	3,153636
2121,000000	3,152779
2120,000000	3,151994
2119,000000	3,150959
2118,000000	3,149721
2117,000000	3,148392
2116,000000	3,146927
2115,000000	3,145809
2114,000000	3,146007
2113,000000	3,147467
2112,000000	3,148619
2111,000000	3,148247
2110,000000	3,146998
2109,000000	3,146217
2108,000000	3,146249
2107,000000	3,146717
2106,000000	3,147459
2105,000000	3,148237
2104,000000	3,148367
2103,000000	3,147597
2102,000000	3,146636
2101,000000	3,146117
2100,000000	3,145868
2099,000000	3,145758
2098,000000	3,146178
2097,000000	3,147009
2096,000000	3,147201
2095,000000	3,146090
2094,000000	3,144042
2093,000000	3,141268
2092,000000	3,137477
2091,000000	3,133438
2090,000000	3,131284
2089,000000	3,132106
2088,000000	3,134567
2087,000000	3,136805
2086,000000	3,138412
2085,000000	3,139566
2084,000000	3,139850
2083,000000	3,139212
2082,000000	3,138650
2081,000000	3,138655
2080,000000	3,138281
2079,000000	3,136937
2078,000000	3,135662
2077,000000	3,135390
2076,000000	3,135404
2075,000000	3,134890
2074,000000	3,134504
2073,000000	3,135021
2072,000000	3,135819
2071,000000	3,135993
2070,000000	3,135316
2069,000000	3,132791
2068,000000	3,126479
2067,000000	3,117002
2066,000000	3,109406
2065,000000	3,108688
2064,000000	3,114280
2063,000000	3,121126
2062,000000	3,125474
2061,000000	3,127394
2060,000000	3,128471
2059,000000	3,129545
2058,000000	3,130701
2057,000000	3,131587
2056,000000	3,131505
2055,000000	3,130375
2054,000000	3,129311
2053,000000	3,129218
2052,000000	3,129494
2051,000000	3,129155
2050,000000	3,128304
2049,000000	3,127404
2048,000000	3,126081
2047,000000	3,123908
2046,000000	3,121205
2045,000000	3,117968
2044,000000	3,113493
2043,000000	3,108583
2042,000000	3,106385
2041,000000	3,108925
2040,000000	3,114058
2039,000000	3,117918
2038,000000	3,119395
2037,000000	3,120036
2036,000000	3,120760
2035,000000	3,121114
2034,000000	3,121123
2033,000000	3,121434
2032,000000	3,121822
2031,000000	3,121476
2030,000000	3,120523
2029,000000	3,119712
2028,000000	3,119029
2027,000000	3,118092
2026,000000	3,117284
2025,000000	3,117032
2024,000000	3,116743
2023,000000	3,115528
2022,000000	3,112667
2021,000000	3,106248
2020,000000	3,093943
2019,000000	3,077858
2018,000000	3,066501
2017,000000	3,067943
2016,000000	3,081187
2015,000000	3,097286
2014,000000	3,108558
2013,000000	3,113616
2012,000000	3,114360
2011,000000	3,112358
2010,000000	3,109202
2009,000000	3,107043
2008,000000	3,106784
2007,000000	3,107499
2006,000000	3,108428
2005,000000	3,109722
2004,000000	3,110870
2003,000000	3,110564
2002,000000	3,108646
2001,000000	3,106346
2000,000000	3,104447
1999,000000	3,103182
1998,000000	3,103111
1997,000000	3,102431
1996,000000	3,093843
1995,000000	3,069932
1994,000000	3,034680
1993,000000	3,005461
1992,000000	2,998545
1991,000000	3,013784
1990,000000	3,037248
1989,000000	3,056885
1988,000000	3,071066
1987,000000	3,082939
1986,000000	3,092589
1985,000000	3,097777
1984,000000	3,098647
1983,000000	3,097877
1982,000000	3,097303
1981,000000	3,096905
1980,000000	3,096400
1979,000000	3,095774
1978,000000	3,094741
1977,000000	3,093181
1976,000000	3,091885
1975,000000	3,091802
1974,000000	3,092780
1973,000000	3,093510
1972,000000	3,091264
1971,000000	3,081349
1970,000000	3,060169
1969,000000	3,032138
1968,000000	3,011334
1967,000000	3,011050
1966,000000	3,030767
1965,000000	3,056389
1964,000000	3,074033
1963,000000	3,080632
1962,000000	3,081149
1961,000000	3,080391
1960,000000	3,080049
1959,000000	3,080043
1958,000000	3,079331
1957,000000	3,076906
1956,000000	3,074009
1955,000000	3,073738
1954,000000	3,077003
1953,000000	3,081070
1952,000000	3,083164
1951,000000	3,082770
1950,000000	3,079578
1949,000000	3,072412
1948,000000	3,061039
1947,000000	3,044485
1946,000000	3,017244
1945,000000	2,975432
1944,000000	2,931019
1943,000000	2,911115
1942,000000	2,933410
1941,000000	2,985673
1940,000000	3,037088
1939,000000	3,067745
1938,000000	3,079691
1937,000000	3,083040
1936,000000	3,082812
1935,000000	3,080511
1934,000000	3,078806
1933,000000	3,079449
1932,000000	3,080980
1931,000000	3,081473
1930,000000	3,081204
1929,000000	3,080770
1928,000000	3,077893
1927,000000	3,066315
1926,000000	3,038814
1925,000000	2,996866
1924,000000	2,957881
1923,000000	2,942524
1922,000000	2,947690
1921,000000	2,943083
1920,000000	2,908379
1919,000000	2,866583
1918,000000	2,863082
1917,000000	2,912254
1916,000000	2,982209
1915,000000	3,032858
1914,000000	3,051138
1913,000000	3,045019
1912,000000	3,023576
1911,000000	2,996483
1910,000000	2,979269
1909,000000	2,982806
1908,000000	3,001385
1907,000000	3,021095
1906,000000	3,035289
1905,000000	3,045095
1904,000000	3,051061
1903,000000	3,053177
1902,000000	3,054728
1901,000000	3,058096
1900,000000	3,059007
1899,000000	3,050567
1898,000000	3,031153
1897,000000	3,006532
1896,000000	2,987373
1895,000000	2,983369
1894,000000	2,991234
1893,000000	2,988833
1892,000000	2,955598
1891,000000	2,903556
1890,000000	2,874175
1889,000000	2,894225
1888,000000	2,946369
1887,000000	2,992644
1886,000000	3,015714
1885,000000	3,024719
1884,000000	3,030999
1883,000000	3,036135
1882,000000	3,039466
1881,000000	3,042302
1880,000000	3,043765
1879,000000	3,042343
1878,000000	3,040541
1877,000000	3,041368
1876,000000	3,042856
1875,000000	3,040222
1874,000000	3,026836
1873,000000	2,986805
1872,000000	2,901192
1871,000000	2,777585
1870,000000	2,666123
1869,000000	2,625702
1868,000000	2,672791
1867,000000	2,772531
1866,000000	2,875831
1865,000000	2,952893
1864,000000	2,995707
1863,000000	3,009687
1862,000000	3,008780
1861,000000	3,006821
1860,000000	3,007631
1859,000000	3,008413
1858,000000	3,010270
1857,000000	3,016478
1856,000000	3,023579
1855,000000	3,025240
1854,000000	3,023187
1853,000000	3,022379
1852,000000	3,017557
1851,000000	2,998719
1850,000000	2,966260
1849,000000	2,924151
1848,000000	2,859063
1847,000000	2,751274
1846,000000	2,618102
1845,000000	2,526767
1844,000000	2,541348
1843,000000	2,658756
1842,000000	2,808989
1841,000000	2,917552
1840,000000	2,959587
1839,000000	2,958569
1838,000000	2,948781
1837,000000	2,948008
1836,000000	2,956570
1835,000000	2,962730
1834,000000	2,942413
1833,000000	2,869758
1832,000000	2,749256
1831,000000	2,635289
1830,000000	2,594001
1829,000000	2,634163
1828,000000	2,693930
1827,000000	2,714009
1826,000000	2,704883
1825,000000	2,722519
1824,000000	2,790598
1823,000000	2,875781
1822,000000	2,936138
1821,000000	2,962103
1820,000000	2,965843
1819,000000	2,957951
1818,000000	2,948209
1817,000000	2,948024
1816,000000	2,955981
1815,000000	2,952013
1814,000000	2,919168
1813,000000	2,865627
1812,000000	2,817435
1811,000000	2,796693
1810,000000	2,809976
1809,000000	2,848224
1808,000000	2,891185
1807,000000	2,918191
1806,000000	2,919157
1805,000000	2,892147
1804,000000	2,835666
1803,000000	2,756605
1802,000000	2,682835
1801,000000	2,649557
1800,000000	2,667391
1799,000000	2,714429
1798,000000	2,759296
1797,000000	2,774689
1796,000000	2,733956
1795,000000	2,624571
1794,000000	2,481671
1793,000000	2,384430
1792,000000	2,397857
1791,000000	2,517628
1790,000000	2,677665
1789,000000	2,802541
1788,000000	2,850780
1787,000000	2,830517
1786,000000	2,787789
1785,000000	2,766406
1784,000000	2,768614
1783,000000	2,764298
1782,000000	2,741260
1781,000000	2,725940
1780,000000	2,743517
1779,000000	2,779290
1778,000000	2,795085
1777,000000	2,763176
1776,000000	2,669183
1775,000000	2,510902
1774,000000	2,325808
1773,000000	2,197416
1772,000000	2,191744
1771,000000	2,287907
1770,000000	2,405180
1769,000000	2,496951
1768,000000	2,583604
1767,000000	2,686588
1766,000000	2,768992
1765,000000	2,770238
1764,000000	2,684396
1763,000000	2,579941
1762,000000	2,537442
1761,000000	2,573907
1760,000000	2,633346
1759,000000	2,651322
1758,000000	2,627186
1757,000000	2,618367
1756,000000	2,655492
1755,000000	2,687683
1754,000000	2,636080
1753,000000	2,492323
1752,000000	2,333167
1751,000000	2,238939
1750,000000	2,229768
1749,000000	2,281339
1748,000000	2,364676
1747,000000	2,451617
1746,000000	2,511810
1745,000000	2,531976
1744,000000	2,523473
1743,000000	2,495529
1742,000000	2,443826
1741,000000	2,385368
1740,000000	2,370462
1739,000000	2,416649
1738,000000	2,445378
1737,000000	2,347097
1736,000000	2,121426
1735,000000	1,911546
1734,000000	1,868588
1733,000000	2,005878
1732,000000	2,213093
1731,000000	2,386715
1730,000000	2,508984
1729,000000	2,608860
1728,000000	2,693525
1727,000000	2,741702
1726,000000	2,743219
1725,000000	2,718557
1724,000000	2,697499
1723,000000	2,679597
1722,000000	2,621694
1721,000000	2,470250
1720,000000	2,225308
1719,000000	1,970240
1718,000000	1,818550
1717,000000	1,823208
1716,000000	1,948018
1715,000000	2,123616
1714,000000	2,304485
1713,000000	2,464632
1712,000000	2,574704
1711,000000	2,615284
1710,000000	2,595048
1709,000000	2,530058
1708,000000	2,425150
1707,000000	2,303871
1706,000000	2,225683
1705,000000	2,215831
1704,000000	2,196101
1703,000000	2,056125
1702,000000	1,810167
1701,000000	1,616008
1700,000000	1,595854
1699,000000	1,694601
1698,000000	1,772282
1697,000000	1,794133
1696,000000	1,858473
1695,000000	2,042248
1694,000000	2,289405
1693,000000	2,474734
1692,000000	2,532846
1691,000000	2,500662
1690,000000	2,448780
1689,000000	2,397003
1688,000000	2,293199
1687,000000	2,081525
1686,000000	1,801930
1685,000000	1,600264
1684,000000	1,606171
1683,000000	1,806375
1682,000000	2,065972
1681,000000	2,267750
1680,000000	2,382740
1679,000000	2,414117
1678,000000	2,349440
1677,000000	2,209092
1676,000000	2,086299
1675,000000	2,069061
1674,000000	2,134924
1673,000000	2,172217
1672,000000	2,112639
1671,000000	2,006065
1670,000000	1,960661
1669,000000	2,037692
1668,000000	2,206014
1667,000000	2,370234
1666,000000	2,437010
1665,000000	2,382157
1664,000000	2,275013
1663,000000	2,222069
1662,000000	2,271532
1661,000000	2,380950
1660,000000	2,474189
1659,000000	2,503620
1658,000000	2,444094
1657,000000	2,260096
1656,000000	1,937000
1655,000000	1,555366
1654,000000	1,291660
1653,000000	1,291840
1652,000000	1,531119
1651,000000	1,819017
1650,000000	1,956214
1649,000000	1,897185
1648,000000	1,762322
1647,000000	1,712405
1646,000000	1,817013
1645,000000	2,026283
1644,000000	2,235437
1643,000000	2,369591
1642,000000	2,415936
1641,000000	2,395965
1640,000000	2,316518
1639,000000	2,161107
1638,000000	1,939380
1637,000000	1,731429
1636,000000	1,653355
1635,000000	1,761377
1634,000000	1,996395
1633,000000	2,231984
1632,000000	2,368695
1631,000000	2,385999
1630,000000	2,328068
1629,000000	2,258987
1628,000000	2,218864
1627,000000	2,199910
1626,000000	2,163343
1625,000000	2,095436
1624,000000	2,041585
1623,000000	2,064273
1622,000000	2,162362
1621,000000	2,248832
1620,000000	2,225858
1619,000000	2,082215
1618,000000	1,911229
1617,000000	1,835889
1616,000000	1,909665
1615,000000	2,080828
1614,000000	2,244758
1613,000000	2,329533
1612,000000	2,335882
1611,000000	2,308158
1610,000000	2,282722
1609,000000	2,271669
1608,000000	2,276532
1607,000000	2,295398
1606,000000	2,316973
1605,000000	2,326690
1604,000000	2,323885
1603,000000	2,322933
1602,000000	2,333762
1601,000000	2,350763
1600,000000	2,363721
1599,000000	2,368711
1598,000000	2,364737
1597,000000	2,350835
1596,000000	2,333069
1595,000000	2,324717
1594,000000	2,331769
1593,000000	2,344891
1592,000000	2,352648
1591,000000	2,355937
1590,000000	2,361926
1589,000000	2,370577
1588,000000	2,376238
1587,000000	2,378117
1586,000000	2,379516
1585,000000	2,379489
1584,000000	2,375028
1583,000000	2,369460
1582,000000	2,366450
1581,000000	2,349074
1580,000000	2,277919
1579,000000	2,126430
1578,000000	1,928819
1577,000000	1,782081
1576,000000	1,779148
1575,000000	1,921592
1574,000000	2,099466
1573,000000	2,176284
1572,000000	2,107359
1571,000000	1,974425
1570,000000	1,901142
1569,000000	1,940126
1568,000000	2,042207
1567,000000	2,126107
1566,000000	2,157863
1565,000000	2,155256
1564,000000	2,123294
1563,000000	2,011012
1562,000000	1,761896
1561,000000	1,413987
1560,000000	1,122186
1559,000000	1,042373
1558,000000	1,189069
1557,000000	1,432866
1556,000000	1,639943
1555,000000	1,781256
1554,000000	1,895208
1553,000000	1,993265
1552,000000	2,049902
1551,000000	2,066840
1550,000000	2,083832
1549,000000	2,115956
1548,000000	2,120149
1547,000000	2,049562
1546,000000	1,912426
1545,000000	1,754207
1544,000000	1,599541
1543,000000	1,440739
1542,000000	1,282809
1541,000000	1,178873
1540,000000	1,205870
1539,000000	1,393484
1538,000000	1,669759
1537,000000	1,889821
1536,000000	1,948620
1535,000000	1,877447
1534,000000	1,809793
1533,000000	1,845917
1532,000000	1,963670
1531,000000	2,066152
1530,000000	2,084788
1529,000000	2,023033
1528,000000	1,926672
1527,000000	1,842446
1526,000000	1,788573
1525,000000	1,739254
1524,000000	1,651416
1523,000000	1,529552
1522,000000	1,446994
1521,000000	1,468276
1520,000000	1,565086
1519,000000	1,648689
1518,000000	1,682945
1517,000000	1,717617
1516,000000	1,801075
1515,000000	1,906930
1514,000000	1,972777
1513,000000	1,976619
1512,000000	1,934560
1511,000000	1,844945
1510,000000	1,681779
1509,000000	1,455419
1508,000000	1,251735
1507,000000	1,187211
1506,000000	1,318791
1505,000000	1,593351
1504,000000	1,880970
1503,000000	2,063124
1502,000000	2,101369
1501,000000	2,032585
1500,000000	1,914348
1499,000000	1,788540
1498,000000	1,691781
1497,000000	1,665634
1496,000000	1,729692
1495,000000	1,845245
1494,000000	1,929363
1493,000000	1,918328
1492,000000	1,821123
1491,000000	1,709848
1490,000000	1,660056
1489,000000	1,697947
1488,000000	1,799961
1487,000000	1,928682
1486,000000	2,056790
1485,000000	2,160132
1484,000000	2,215006
1483,000000	2,220702
1482,000000	2,209541
1481,000000	2,210757
1480,000000	2,210305
1479,000000	2,170016
1478,000000	2,080818
1477,000000	1,969496
1476,000000	1,855693
1475,000000	1,738064
1474,000000	1,636119
1473,000000	1,608254
1472,000000	1,699099
1471,000000	1,879960
1470,000000	2,062881
1469,000000	2,165937
1468,000000	2,158635
1467,000000	2,068922
1466,000000	1,967918
1465,000000	1,931834
1464,000000	1,984255
1463,000000	2,070475
1462,000000	2,097599
1461,000000	2,005047
1460,000000	1,800003
1459,000000	1,553509
1458,000000	1,373134
1457,000000	1,350110
1456,000000	1,492720
1455,000000	1,713810
1454,000000	1,903287
1453,000000	2,011697
1452,000000	2,053424
1451,000000	2,051744
1450,000000	2,018731
1449,000000	1,979904
1448,000000	1,976635
1447,000000	2,026396
1446,000000	2,102157
1445,000000	2,163625
1444,000000	2,195658
1443,000000	2,208506
1442,000000	2,210163
1441,000000	2,186458
1440,000000	2,107965
1439,000000	1,965418
1438,000000	1,807308
1437,000000	1,724814
1436,000000	1,773239
1435,000000	1,911204
1434,000000	2,036527
1433,000000	2,083169
1432,000000	2,064355
1431,000000	2,032327
1430,000000	2,025778
1429,000000	2,053880
1428,000000	2,098085
1427,000000	2,120962
1426,000000	2,099051
1425,000000	2,053922
1424,000000	2,024692
1423,000000	2,004001
1422,000000	1,938800
1421,000000	1,811640
1420,000000	1,689064
1419,000000	1,659883
1418,000000	1,742233
1417,000000	1,878356
1416,000000	2,000858
1415,000000	2,078914
1414,000000	2,111763
1413,000000	2,112048
1412,000000	2,100602
1411,000000	2,095344
1410,000000	2,095946
1409,000000	2,086532
1408,000000	2,054702
1407,000000	2,004099
1406,000000	1,955035
1405,000000	1,934653
1404,000000	1,953133
1403,000000	1,982381
1402,000000	1,974439
1401,000000	1,914756
1400,000000	1,843217
1399,000000	1,804638
1398,000000	1,795927
1397,000000	1,784074
1396,000000	1,764597
1395,000000	1,772451
1394,000000	1,832494
1393,000000	1,924117
1392,000000	1,999140
1391,000000	2,020072
1390,000000	1,981050
1389,000000	1,910284
1388,000000	1,857526
1387,000000	1,860883
1386,000000	1,914855
1385,000000	1,979138
1384,000000	2,020537
1383,000000	2,035948
1382,000000	2,037080
1381,000000	2,030545
1380,000000	2,019146
1379,000000	2,005826
1378,000000	1,985663
1377,000000	1,946706
1376,000000	1,891492
1375,000000	1,848684
1374,000000	1,849193
1373,000000	1,892541
1372,000000	1,945722
1371,000000	1,976328
1370,000000	1,979972
1369,000000	1,975419
1368,000000	1,978121
1367,000000	1,980435
1366,000000	1,959544
1365,000000	1,905781
1364,000000	1,840968
1363,000000	1,804116
1362,000000	1,816792
1361,000000	1,866571
1360,000000	1,923264
1359,000000	1,964179
1358,000000	1,983319
1357,000000	1,985513
1356,000000	1,979885
1355,000000	1,975797
1354,000000	1,977544
1353,000000	1,981635
1352,000000	1,982108
1351,000000	1,978000
1350,000000	1,973617
1349,000000	1,972617
1348,000000	1,974519
1347,000000	1,976883
1346,000000	1,978033
1345,000000	1,975771
1344,000000	1,964261
1343,000000	1,935672
1342,000000	1,888994
1341,000000	1,837544
1340,000000	1,803930
1339,000000	1,803370
1338,000000	1,831897
1337,000000	1,872441
1336,000000	1,909453
1335,000000	1,935831
1334,000000	1,950210
1333,000000	1,954039
1332,000000	1,951754
1331,000000	1,948744
1330,000000	1,947147
1329,000000	1,945701
1328,000000	1,943752
1327,000000	1,942318
1326,000000	1,941334
1325,000000	1,938948
1324,000000	1,933710
1323,000000	1,924908
1322,000000	1,911368
1321,000000	1,893438
1320,000000	1,876329
1319,000000	1,867422
1318,000000	1,868670
1317,000000	1,874204
1316,000000	1,876603
1315,000000	1,873973
1314,000000	1,870145
1313,000000	1,869837
1312,000000	1,874451
1311,000000	1,881079
1310,000000	1,885099
1309,000000	1,884648
1308,000000	1,882155
1307,000000	1,880731
1306,000000	1,880151
1305,000000	1,878215
1304,000000	1,874761
1303,000000	1,871635
1302,000000	1,869431
1301,000000	1,866802
1300,000000	1,862983
1299,000000	1,858625
1298,000000	1,854273
1297,000000	1,850052
1296,000000	1,846676
1295,000000	1,844755
1294,000000	1,843259
1293,000000	1,840435
1292,000000	1,835914
1291,000000	1,830375
1290,000000	1,824023
1289,000000	1,817451
1288,000000	1,812937
1287,000000	1,812262
1286,000000	1,813629
1285,000000	1,813261
1284,000000	1,809725
1283,000000	1,804660
1282,000000	1,799709
1281,000000	1,795084
1280,000000	1,790879
1279,000000	1,787318
1278,000000	1,783611
1277,000000	1,778510
1276,000000	1,771868
1275,000000	1,764039
1274,000000	1,754518
1273,000000	1,743191
1272,000000	1,732217
1271,000000	1,724177
1270,000000	1,718695
1269,000000	1,713104
1268,000000	1,706085
1267,000000	1,698469
1266,000000	1,690747
1265,000000	1,682306
1264,000000	1,673098
1263,000000	1,664126
1262,000000	1,656250
1261,000000	1,650323
1260,000000	1,647973
1259,000000	1,649990
1258,000000	1,654261
1257,000000	1,657492
1256,000000	1,658719
1255,000000	1,659207
1254,000000	1,659318
1253,000000	1,657895
1252,000000	1,654656
1251,000000	1,650756
1250,000000	1,646819
1249,000000	1,642442
1248,000000	1,637765
1247,000000	1,633575
1246,000000	1,629786
1245,000000	1,625572
1244,000000	1,621012
1243,000000	1,616816
1242,000000	1,612638
1241,000000	1,607558
1240,000000	1,602068
1239,000000	1,597618
1238,000000	1,594192
1237,000000	1,590284
1236,000000	1,585260
1235,000000	1,579936
1234,000000	1,574823
1233,000000	1,569613
1232,000000	1,564381
1231,000000	1,559533
1230,000000	1,554539
1229,000000	1,548452
1228,000000	1,541680
1227,000000	1,535589
1226,000000	1,530450
1225,000000	1,525372
1224,000000	1,520116
1223,000000	1,515196
1222,000000	1,510345
1221,000000	1,504638
1220,000000	1,498167
1219,000000	1,491906
1218,000000	1,485987
1217,000000	1,479667
1216,000000	1,472881
1215,000000	1,466228
1214,000000	1,459642
1213,000000	1,452739
1212,000000	1,446257
1211,000000	1,441360
1210,000000	1,437693
1209,000000	1,433829
1208,000000	1,429438
1207,000000	1,425272
1206,000000	1,421212
1205,000000	1,416319
1204,000000	1,410798
1203,000000	1,405967
1202,000000	1,402123
1201,000000	1,398187
1200,000000	1,393600
1199,000000	1,388876
1198,000000	1,384176
1197,000000	1,379019
1196,000000	1,373577
1195,000000	1,368649
1194,000000	1,364214
1193,000000	1,359506
1192,000000	1,354533
1191,000000	1,349990
1190,000000	1,345650
1189,000000	1,340498
1188,000000	1,334531
1187,000000	1,328763
1186,000000	1,323328
1185,000000	1,317221
1184,000000	1,310119
1183,000000	1,302921
1182,000000	1,296294
1181,000000	1,290146
1180,000000	1,284690
1179,000000	1,280425
1178,000000	1,276848
1177,000000	1,272719
1176,000000	1,267866
1175,000000	1,263310
1174,000000	1,259357
1173,000000	1,255015
1172,000000	1,249617
1171,000000	1,243640
1170,000000	1,237572
1169,000000	1,231264
1168,000000	1,224748
1167,000000	1,218457
1166,000000	1,212301
1165,000000	1,205678
1164,000000	1,198664
1163,000000	1,192137
1162,000000	1,186507
1161,000000	1,181347
1160,000000	1,176360
1159,000000	1,171620
1158,000000	1,166815
1157,000000	1,161405
1156,000000	1,155682
1155,000000	1,150570
1154,000000	1,146298
1153,000000	1,142250
1152,000000	1,138122
1151,000000	1,134121
1150,000000	1,130064
1149,000000	1,125495
1148,000000	1,120726
1147,000000	1,116606
1146,000000	1,113157
1145,000000	1,109565
1144,000000	1,105558
1143,000000	1,101671
1142,000000	1,098085
1141,000000	1,094339
1140,000000	1,090325
1139,000000	1,086525
1138,000000	1,083106
1137,000000	1,079721
1136,000000	1,076242
1135,000000	1,072785
1134,000000	1,069038
1133,000000	1,064541
1132,000000	1,059582
1131,000000	1,054861
1130,000000	1,050384
1129,000000	1,045615
1128,000000	1,040551
1127,000000	1,035602
1126,000000	1,030587
1125,000000	1,024988
1124,000000	1,019048
1123,000000	1,013475
1122,000000	1,008189
1121,000000	1,002524
1120,000000	0,996572
1119,000000	0,991116
1118,000000	0,986252
1117,000000	0,981258
1116,000000	0,975853
1115,000000	0,970477
1114,000000	0,965310
1113,000000	0,960129
1112,000000	0,955109
1111,000000	0,950604
1110,000000	0,946158
1109,000000	0,940910
1108,000000	0,935108
1107,000000	0,930001
1106,000000	0,926147
1105,000000	0,922883
1104,000000	0,919592
1103,000000	0,916378
1102,000000	0,913296
1101,000000	0,909985
1100,000000	0,906366
1099,000000	0,902828
1098,000000	0,899512
1097,000000	0,896171
1096,000000	0,892803
1095,000000	0,889641
1094,000000	0,886501
1093,000000	0,882992
1092,000000	0,879329
1091,000000	0,876150
1090,000000	0,873565
1089,000000	0,871186
1088,000000	0,868926
1087,000000	0,866875
1086,000000	0,864583
1085,000000	0,861502
1084,000000	0,858000
1083,000000	0,854915
1082,000000	0,852209
1081,000000	0,849140
1080,000000	0,845736
1079,000000	0,842926
1078,000000	0,841148
1077,000000	0,839851
1076,000000	0,838539
1075,000000	0,837342
1074,000000	0,836365
1073,000000	0,835407
1072,000000	0,834478
1071,000000	0,833822
1070,000000	0,833319
1069,000000	0,832615
1068,000000	0,831828
1067,000000	0,831384
1066,000000	0,831186
1065,000000	0,830779
1064,000000	0,830220
1063,000000	0,829925
1062,000000	0,829706
1061,000000	0,828866
1060,000000	0,827273
1059,000000	0,825487
1058,000000	0,823813
1057,000000	0,821929
1056,000000	0,819437
1055,000000	0,815966
1054,000000	0,811058
1053,000000	0,804944
1052,000000	0,799432
1051,000000	0,796909
1050,000000	0,798405
1049,000000	0,803166
1048,000000	0,809856
1047,000000	0,817268
1046,000000	0,824037
1045,000000	0,829127
1044,000000	0,832808
1043,000000	0,836283
1042,000000	0,840059
1041,000000	0,843501
1040,000000	0,845973
1039,000000	0,847574
1038,000000	0,848632
1037,000000	0,849310
1036,000000	0,849958
1035,000000	0,851071
1034,000000	0,852728
1033,000000	0,854651
1032,000000	0,856765
1031,000000	0,859082
1030,000000	0,861168
1029,000000	0,862515
1028,000000	0,863412
1027,000000	0,864611
1026,000000	0,866198
1025,000000	0,867562
1024,000000	0,868478
1023,000000	0,869425
1022,000000	0,870763
1021,000000	0,872395
1020,000000	0,874250
1019,000000	0,876416
1018,000000	0,878757
1017,000000	0,881029
1016,000000	0,883286
1015,000000	0,885573
1014,000000	0,887456
1013,000000	0,888608
1012,000000	0,889655
1011,000000	0,891601
1010,000000	0,894526
1009,000000	0,897652
1008,000000	0,900517
1007,000000	0,903187
1006,000000	0,905536
1005,000000	0,907262
1004,000000	0,908593
1003,000000	0,910037
1002,000000	0,911469
1001,000000	0,912300
1000,000000	0,912543
999,000000	0,912767
998,000000	0,913101
997,000000	0,913166
996,000000	0,912960
995,000000	0,912858
994,000000	0,912713
993,000000	0,911944
992,000000	0,910547
991,000000	0,909083
990,000000	0,907600
989,000000	0,905544
988,000000	0,902893
987,000000	0,900463
986,000000	0,898827
985,000000	0,897741
984,000000	0,896778
983,000000	0,895721
982,000000	0,894222
981,000000	0,891958
980,000000	0,889338
979,000000	0,887248
978,000000	0,885902
977,000000	0,884648
976,000000	0,883007
975,000000	0,881068
974,000000	0,878762
973,000000	0,875714
972,000000	0,872108
971,000000	0,868819
970,000000	0,866261
969,000000	0,863813
968,000000	0,860775
967,000000	0,857300
966,000000	0,853986
965,000000	0,851113
964,000000	0,848610
963,000000	0,846301
962,000000	0,843902
961,000000	0,841177
960,000000	0,838263
959,000000	0,835487
958,000000	0,832782
957,000000	0,829760
956,000000	0,826369
955,000000	0,822974
954,000000	0,819786
953,000000	0,816720
952,000000	0,813795
951,000000	0,811114
950,000000	0,808464
949,000000	0,805507
948,000000	0,802411
947,000000	0,799675
946,000000	0,797409
945,000000	0,795334
944,000000	0,793422
943,000000	0,791815
942,000000	0,790146
941,000000	0,787745
940,000000	0,784625
939,000000	0,781582
938,000000	0,779117
937,000000	0,776916
936,000000	0,774483
935,000000	0,771696
934,000000	0,768607
933,000000	0,765354
932,000000	0,762412
931,000000	0,760340
930,000000	0,759046
929,000000	0,757795
928,000000	0,756034
927,000000	0,753729
926,000000	0,750896
925,000000	0,747439
924,000000	0,743611
923,000000	0,740061
922,000000	0,737230
921,000000	0,735057
920,000000	0,733263
919,000000	0,731463
918,000000	0,729078
917,000000	0,725760
916,000000	0,721983
915,000000	0,718609
914,000000	0,715806
913,000000	0,712948
912,000000	0,709599
911,000000	0,706022
910,000000	0,702650
909,000000	0,699640
908,000000	0,697086
907,000000	0,695024
906,000000	0,693089
905,000000	0,690661
904,000000	0,687564
903,000000	0,684214
902,000000	0,681072
901,000000	0,678343
900,000000	0,676184
899,000000	0,674609
898,000000	0,673175
897,000000	0,671315
896,000000	0,669084
895,000000	0,667023
894,000000	0,665243
893,000000	0,663210
892,000000	0,660549
891,000000	0,657547
890,000000	0,654654
889,000000	0,651980
888,000000	0,649392
887,000000	0,646720
886,000000	0,643750
885,000000	0,640385
884,000000	0,636815
883,000000	0,633213
882,000000	0,629335
881,000000	0,624952
880,000000	0,620551
879,000000	0,617037
878,000000	0,614722
877,000000	0,613168
876,000000	0,612056
875,000000	0,611566
874,000000	0,611783
873,000000	0,612299
872,000000	0,612636
871,000000	0,612630
870,000000	0,612291
869,000000	0,611749
868,000000	0,611396
867,000000	0,611597
866,000000	0,612116
865,000000	0,612245
864,000000	0,611632
863,000000	0,610568
862,000000	0,609356
861,000000	0,607949
860,000000	0,606349
859,000000	0,604894
858,000000	0,603836
857,000000	0,602949
856,000000	0,601803
855,000000	0,600200
854,000000	0,598245
853,000000	0,596246
852,000000	0,594615
851,000000	0,593586
850,000000	0,592893
849,000000	0,591972
848,000000	0,590597
847,000000	0,589080
846,000000	0,587810
845,000000	0,586811
844,000000	0,585820
843,000000	0,584622
842,000000	0,583251
841,000000	0,581964
840,000000	0,580962
839,000000	0,580022
838,000000	0,578591
837,000000	0,576351
836,000000	0,573483
835,000000	0,570219
834,000000	0,566425
833,000000	0,561958
832,000000	0,557071
831,000000	0,552084
830,000000	0,546908
829,000000	0,541336
828,000000	0,535613
827,000000	0,530310
826,000000	0,525873
825,000000	0,522686
824,000000	0,521324
823,000000	0,522088
822,000000	0,524415
821,000000	0,527292
820,000000	0,530171
819,000000	0,533039
818,000000	0,535684
817,000000	0,537582
816,000000	0,538522
815,000000	0,538848
814,000000	0,538933
813,000000	0,538806
812,000000	0,538300
811,000000	0,537213
810,000000	0,535369
809,000000	0,532865
808,000000	0,530254
807,000000	0,528104
806,000000	0,526439
805,000000	0,524935
804,000000	0,523490
803,000000	0,522158
802,000000	0,520691
801,000000	0,518767
800,000000	0,516648
799,000000	0,515068
798,000000	0,514352
797,000000	0,514102
796,000000	0,513834
795,000000	0,513473
794,000000	0,513118
793,000000	0,512800
792,000000	0,512629
791,000000	0,512814
790,000000	0,513334
789,000000	0,513812
788,000000	0,513886
787,000000	0,513554
786,000000	0,513114
785,000000	0,512916
784,000000	0,513120
783,000000	0,513513
782,000000	0,513590
781,000000	0,513033
780,000000	0,512055
779,000000	0,511120
778,000000	0,510459
777,000000	0,510068
776,000000	0,509957
775,000000	0,510075
774,000000	0,510075
773,000000	0,509525
772,000000	0,508307
771,000000	0,506601
770,000000	0,504617
769,000000	0,502626
768,000000	0,501088
767,000000	0,500345
766,000000	0,500168
765,000000	0,499895
764,000000	0,499016
763,000000	0,497468
762,000000	0,495492
761,000000	0,493426
760,000000	0,491538
759,000000	0,489847
758,000000	0,488210
757,000000	0,486701
756,000000	0,485605
755,000000	0,484827
754,000000	0,483720
753,000000	0,481891
752,000000	0,479876
751,000000	0,478466
750,000000	0,477565
749,000000	0,476314
748,000000	0,474272
747,000000	0,471929
746,000000	0,469979
745,000000	0,468550
744,000000	0,467277
743,000000	0,465777
742,000000	0,463896
741,000000	0,461757
740,000000	0,459704
739,000000	0,458011
738,000000	0,456606
737,000000	0,455212
736,000000	0,453717
735,000000	0,452179
734,000000	0,450512
733,000000	0,448464
732,000000	0,446045
731,000000	0,443746
730,000000	0,442134
729,000000	0,441199
728,000000	0,440224
727,000000	0,438454
726,000000	0,435857
725,000000	0,432964
724,000000	0,429855
723,000000	0,425798
722,000000	0,420531
721,000000	0,415600
720,000000	0,413473
719,000000	0,414909
718,000000	0,417864
717,000000	0,419502
716,000000	0,418788
715,000000	0,416682
714,000000	0,414343
713,000000	0,411985
712,000000	0,409366
711,000000	0,406508
710,000000	0,403645
709,000000	0,400850
708,000000	0,398051
707,000000	0,395295
706,000000	0,392765
705,000000	0,390524
704,000000	0,388314
703,000000	0,385650
702,000000	0,382172
701,000000	0,377919
700,000000	0,373213
699,000000	0,368361
698,000000	0,363571
697,000000	0,359037
696,000000	0,354885
695,000000	0,351025
694,000000	0,347135
693,000000	0,342737
692,000000	0,337332
691,000000	0,330804
690,000000	0,323893
689,000000	0,317872
688,000000	0,313458
687,000000	0,310302
686,000000	0,307750
685,000000	0,305627
684,000000	0,303908
683,000000	0,302246
682,000000	0,300408
681,000000	0,298685
680,000000	0,297319
679,000000	0,296105
678,000000	0,295031
677,000000	0,294543
676,000000	0,294662
675,000000	0,294829
674,000000	0,294633
673,000000	0,292313
672,000000	0,281719
671,000000	0,255361
670,000000	0,215796
669,000000	0,181810
668,000000	0,176131
667,000000	0,203509
666,000000	0,244822
665,000000	0,275614
664,000000	0,286640
663,000000	0,285025
662,000000	0,280399
661,000000	0,276071
660,000000	0,271876
659,000000	0,268351
658,000000	0,265965
657,000000	0,263740
656,000000	0,260886
655,000000	0,258098
654,000000	0,256164
653,000000	0,254640
652,000000	0,252714
651,000000	0,250267
650,000000	0,247597
649,000000	0,245188
648,000000	0,243943
647,000000	0,244498
646,000000	0,246093
645,000000	0,247195
644,000000	0,247295
643,000000	0,247048
642,000000	0,246689
641,000000	0,245697
640,000000	0,244058
639,000000	0,242513
638,000000	0,241214
637,000000	0,239457
636,000000	0,237112
635,000000	0,235154
634,000000	0,234272
633,000000	0,233913
632,000000	0,233209
631,000000	0,231941
630,000000	0,230228
629,000000	0,228071
628,000000	0,225623
627,000000	0,223250
626,000000	0,221006
625,000000	0,218650
624,000000	0,216325
623,000000	0,214444
622,000000	0,212691
621,000000	0,209939
620,000000	0,205565
619,000000	0,200374
618,000000	0,195909
617,000000	0,193273
616,000000	0,192575
615,000000	0,192931
614,000000	0,192922
613,000000	0,191616
612,000000	0,189254
611,000000	0,186651
610,000000	0,184089
609,000000	0,181340
608,000000	0,178527
607,000000	0,176153
606,000000	0,174346
605,000000	0,172717
604,000000	0,170947
603,000000	0,168893
602,000000	0,166292
601,000000	0,163064
600,000000	0,159802
599,000000	0,157236
598,000000	0,155303
597,000000	0,153373
596,000000	0,151198
595,000000	0,148913
594,000000	0,146380
593,000000	0,143442
592,000000	0,140638
591,000000	0,138698
590,000000	0,137403
589,000000	0,135889
588,000000	0,133959
587,000000	0,132157
586,000000	0,130548
585,000000	0,128505
584,000000	0,125814
583,000000	0,123019
582,000000	0,120495
581,000000	0,118052
580,000000	0,115612
579,000000	0,113443
578,000000	0,111592
577,000000	0,109866
576,000000	0,108393
575,000000	0,107339
574,000000	0,106113
573,000000	0,103828
572,000000	0,100666
571,000000	0,097757
570,000000	0,095593
569,000000	0,093598
568,000000	0,091422
567,000000	0,089542
566,000000	0,088191
565,000000	0,086784
564,000000	0,084913
563,000000	0,083015
562,000000	0,081462
561,000000	0,079820
560,000000	0,077620
559,000000	0,075186
558,000000	0,073136
557,000000	0,071581
556,000000	0,070290
555,000000	0,069087
554,000000	0,067746
553,000000	0,065996
552,000000	0,064004
551,000000	0,062387
550,000000	0,061419
549,000000	0,060632
548,000000	0,059494
547,000000	0,057985
546,000000	0,056307
545,000000	0,054558
544,000000	0,052967
543,000000	0,051857
542,000000	0,051113
541,000000	0,050198
540,000000	0,048907
539,000000	0,047599
538,000000	0,046522
537,000000	0,045444
536,000000	0,044181
535,000000	0,042884
534,000000	0,041580
533,000000	0,040055
532,000000	0,038402
531,000000	0,037116
530,000000	0,036382
529,000000	0,035776
528,000000	0,034919
527,000000	0,033920
526,000000	0,032975
525,000000	0,032043
524,000000	0,031124
523,000000	0,030331
522,000000	0,029515
521,000000	0,028361
520,000000	0,026986
519,000000	0,025885
518,000000	0,025224
517,000000	0,024745
516,000000	0,024394
515,000000	0,024395
514,000000	0,024599
513,000000	0,024541
512,000000	0,024221
511,000000	0,024128
510,000000	0,024278
509,000000	0,024066
508,000000	0,023352
507,000000	0,022833
506,000000	0,022962
505,000000	0,023284
504,000000	0,023277
503,000000	0,023227
502,000000	0,023722
501,000000	0,024783
500,000000	0,026034
499,000000	0,027285
498,000000	0,028458
497,000000	0,029338
496,000000	0,029855
495,000000	0,030398
494,000000	0,031393
493,000000	0,032829
492,000000	0,034599
491,000000	0,036702
490,000000	0,038858
489,000000	0,040608
488,000000	0,041935
487,000000	0,043351
486,000000	0,045213
485,000000	0,047420
484,000000	0,049918
483,000000	0,052960
482,000000	0,056564
481,000000	0,060250
480,000000	0,063656
479,000000	0,066899
478,000000	0,070073
477,000000	0,072813
476,000000	0,074640
475,000000	0,075529
474,000000	0,076059
473,000000	0,077304
472,000000	0,080380
471,000000	0,085467
470,000000	0,091243
469,000000	0,095963
468,000000	0,099339
467,000000	0,102590
466,000000	0,106561
465,000000	0,110718
464,000000	0,114320
463,000000	0,117507
462,000000	0,120363
461,000000	0,121827
460,000000	0,120900
459,000000	0,118878
458,000000	0,119075
457,000000	0,123672
456,000000	0,131375
455,000000	0,138665
454,000000	0,143306
453,000000	0,146109
452,000000	0,149095
451,000000	0,152711
450,000000	0,155590
449,000000	0,156890
448,000000	0,157583
447,000000	0,158845
446,000000	0,160167
445,000000	0,160158
444,000000	0,158872
443,000000	0,158105
442,000000	0,159384
441,000000	0,162429
440,000000	0,165611
439,000000	0,167308
438,000000	0,166911
437,000000	0,165363
436,000000	0,164646
435,000000	0,165840
434,000000	0,167786
433,000000	0,168475
432,000000	0,167520
431,000000	0,166295
430,000000	0,165699
429,000000	0,165047
428,000000	0,163270
427,000000	0,160072
426,000000	0,155853
425,000000	0,151392
424,000000	0,147458
423,000000	0,143379
422,000000	0,136442
421,000000	0,124999
420,000000	0,112666
419,000000	0,106831
418,000000	0,111392
417,000000	0,122322
416,000000	0,131825
415,000000	0,135700
414,000000	0,135158
413,000000	0,133013
412,000000	0,130648
411,000000	0,128327
410,000000	0,126154
409,000000	0,123908
408,000000	0,121088
407,000000	0,117609
406,000000	0,113934
405,000000	0,110325
404,000000	0,106440
403,000000	0,101628
402,000000	0,095128
401,000000	0,086476
400,000000	0,076493
399,000000	0,067656
398,000000	0,062499
397,000000	0,061521
396,000000	0,063154
395,000000	0,065521
394,000000	0,067646
393,000000	0,069098
392,000000	0,069472
391,000000	0,068509
390,000000	0,066319
389,000000	0,063151
388,000000	0,059232
387,000000	0,054926
386,000000	0,050838
385,000000	0,047602
384,000000	0,045525
383,000000	0,044322
382,000000	0,043150
381,000000	0,041190
380,000000	0,038313
379,000000	0,034935
378,000000	0,031333
377,000000	0,027687
376,000000	0,024727
375,000000	0,023472
374,000000	0,023889
373,000000	0,024486
372,000000	0,023883
371,000000	0,022257
370,000000	0,020669
369,000000	0,019593
368,000000	0,018592
367,000000	0,017144
366,000000	0,015269
365,000000	0,013390
364,000000	0,012048
363,000000	0,011593
362,000000	0,011804
361,000000	0,011892
360,000000	0,011252
359,000000	0,009995
358,000000	0,008494
357,000000	0,006926
356,000000	0,005501
355,000000	0,004596
354,000000	0,004223
353,000000	0,003885
352,000000	0,003283
351,000000	0,002870
350,000000	0,003021
349,000000	0,002918
348,000000	0,002211
347,000000	0,001593
346,000000	0,001469
345,000000	0,001425
344,000000	0,001159
343,000000	0,000896
342,000000	0,001247
341,000000	0,001988
340,000000	0,002264
339,000000	0,001393
338,000000	0,000528
337,000000	0,001621
336,000000	0,001624
335,000000	0,000908
334,000000	0,000298
333,000000	0,001498
332,000000	0,002340
331,000000	0,002770
330,000000	0,003135
329,000000	0,003054
328,000000	0,002082
327,000000	0,000616
326,000000	0,000891
325,000000	0,001698
324,000000	0,001873
323,000000	0,001776
322,000000	0,001570
321,000000	0,000911
320,000000	0,000332
319,000000	0,001344
318,000000	0,001446
317,000000	0,000816
316,000000	0,000567
315,000000	0,000724
314,000000	0,001115
313,000000	0,001454
312,000000	0,001113
311,000000	0,000476
310,000000	0,000727
309,000000	0,001105
308,000000	0,001566
307,000000	0,002412
306,000000	0,003034
305,000000	0,002846
304,000000	0,002051
303,000000	0,001733
302,000000	0,001879
301,000000	0,002101
300,000000	0,001950
299,000000	0,001109
298,000000	0,001014
297,000000	0,001534
296,000000	0,001517
295,000000	0,001683
294,000000	0,002101
293,000000	0,002237
292,000000	0,002117
291,000000	0,002049
290,000000	0,002109
289,000000	0,002073
288,000000	0,001745
287,000000	0,001270
286,000000	0,001066
285,000000	0,001319
284,000000	0,002056
283,000000	0,002714
282,000000	0,002639
281,000000	0,001924
280,000000	0,001193
279,000000	0,000833
278,000000	0,000773
277,000000	0,000518
276,000000	0,000401
275,000000	0,001563
274,000000	0,002464
273,000000	0,002603
272,000000	0,002158
271,000000	0,001625
270,000000	0,001195
269,000000	0,000987
268,000000	0,000884
267,000000	0,000831
266,000000	0,001128
265,000000	0,001816
264,000000	0,002318
263,000000	0,002546
262,000000	0,002659
261,000000	0,002757
260,000000	0,002821
259,000000	0,002813
258,000000	0,002597
257,000000	0,002158
256,000000	0,001747
255,000000	0,001362
254,000000	0,001098
253,000000	0,000940
252,000000	0,000645
251,000000	0,000482
250,000000	0,000554
249,000000	0,001485
248,000000	0,002493
247,000000	0,003432
246,000000	0,004083
245,000000	0,003842
244,000000	0,002523
243,000000	0,001683
242,000000	0,002879
241,000000	0,003674
240,000000	0,003456
239,000000	0,002594
238,000000	0,001582
237,000000	0,000790
236,000000	0,000404
235,000000	0,000909
234,000000	0,001987
233,000000	0,002904
232,000000	0,003146
231,000000	0,002907
230,000000	0,002676
229,000000	0,002567
228,000000	0,002449
227,000000	0,002165
226,000000	0,001644
225,000000	0,001342
224,000000	0,001543
223,000000	0,001610
222,000000	0,001315
221,000000	0,000940
220,000000	0,000612
219,000000	0,000588
218,000000	0,001045
217,000000	0,001552
216,000000	0,001869
215,000000	0,001932
214,000000	0,001772
213,000000	0,001356
212,000000	0,000693
211,000000	0,000259
210,000000	0,000910
209,000000	0,001393
208,000000	0,001651
207,000000	0,001759
206,000000	0,001730
205,000000	0,001492
204,000000	0,001083
203,000000	0,000605
202,000000	0,000280
201,000000	0,001182
200,000000	0,002181
