PE IR       SUBTECH     SPECTRUM    ASCII       PEDS        4.00        
   -1
Gold Mirror baseline reflectivitz.ASC
25/04/22
10:26:55.00
25/04/22
10:26:55.00
Praktikum
Sample 024 By Praktikum date Dienstag, April 22 2025
200,000000
#HDR
-1
-1
#GR
cm-1
EGY
1.0
0.0
4000,000000
-1,000000
3801
8
13,298841
0,000526
#DATA
4000,000000	8,971694
3999,000000	8,969490
3998,000000	8,962100
3997,000000	8,952415
3996,000000	8,945175
3995,000000	8,942978
3994,000000	8,944304
3993,000000	8,946443
3992,000000	8,949733
3991,000000	8,957662
3990,000000	8,972243
3989,000000	8,990397
3988,000000	9,005735
3987,000000	9,013526
3986,000000	9,013587
3985,000000	9,009323
3984,000000	9,005188
3983,000000	9,004669
3982,000000	9,008754
3981,000000	9,014746
3980,000000	9,017063
3979,000000	9,010503
3978,000000	8,994294
3977,000000	8,973473
3976,000000	8,956043
3975,000000	8,948285
3974,000000	8,951421
3973,000000	8,962087
3972,000000	8,975927
3971,000000	8,991075
3970,000000	9,008643
3969,000000	9,029536
3968,000000	9,050162
3967,000000	9,061518
3966,000000	9,054370
3965,000000	9,027588
3964,000000	8,992388
3963,000000	8,966567
3962,000000	8,961987
3961,000000	8,976609
3960,000000	8,998547
3959,000000	9,017088
3958,000000	9,029389
3957,000000	9,037143
3956,000000	9,038905
3955,000000	9,026870
3954,000000	8,990483
3953,000000	8,924176
3952,000000	8,835503
3951,000000	8,748847
3950,000000	8,697020
3949,000000	8,699774
3948,000000	8,742749
3947,000000	8,780219
3946,000000	8,771093
3945,000000	8,718571
3944,000000	8,673624
3943,000000	8,692422
3942,000000	8,786258
3941,000000	8,915326
3940,000000	9,027238
3939,000000	9,092569
3938,000000	9,103916
3937,000000	9,055221
3936,000000	8,940140
3935,000000	8,774958
3934,000000	8,610744
3933,000000	8,512334
3932,000000	8,517524
3931,000000	8,611613
3930,000000	8,734235
3929,000000	8,812585
3928,000000	8,806455
3927,000000	8,735549
3926,000000	8,662305
3925,000000	8,639976
3924,000000	8,667118
3923,000000	8,692900
3922,000000	8,664955
3921,000000	8,572778
3920,000000	8,455279
3919,000000	8,376690
3918,000000	8,394102
3917,000000	8,526630
3916,000000	8,741059
3915,000000	8,968362
3914,000000	9,144565
3913,000000	9,246538
3912,000000	9,287000
3911,000000	9,276711
3910,000000	9,194313
3909,000000	8,995841
3908,000000	8,656808
3907,000000	8,211257
3906,000000	7,752469
3905,000000	7,386890
3904,000000	7,174942
3903,000000	7,112192
3902,000000	7,166762
3901,000000	7,327296
3900,000000	7,606346
3899,000000	7,990622
3898,000000	8,401349
3897,000000	8,711363
3896,000000	8,811523
3895,000000	8,678817
3894,000000	8,404673
3893,000000	8,159180
3892,000000	8,087994
3891,000000	8,197345
3890,000000	8,332952
3889,000000	8,315484
3888,000000	8,112244
3887,000000	7,873333
3886,000000	7,775163
3885,000000	7,841468
3884,000000	7,939682
3883,000000	7,949285
3882,000000	7,904795
3881,000000	7,951157
3880,000000	8,165810
3879,000000	8,452537
3878,000000	8,623061
3877,000000	8,573332
3876,000000	8,362478
3875,000000	8,113683
3874,000000	7,877117
3873,000000	7,623867
3872,000000	7,364977
3871,000000	7,211158
3870,000000	7,264963
3869,000000	7,479293
3868,000000	7,678003
3867,000000	7,728692
3866,000000	7,666185
3865,000000	7,636179
3864,000000	7,745152
3863,000000	7,987859
3862,000000	8,281004
3861,000000	8,522870
3860,000000	8,610743
3859,000000	8,444719
3858,000000	7,961830
3857,000000	7,199569
3856,000000	6,343117
3855,000000	5,690485
3854,000000	5,513172
3853,000000	5,893369
3852,000000	6,673847
3851,000000	7,564230
3850,000000	8,312153
3849,000000	8,792042
3848,000000	8,986128
3847,000000	8,934455
3846,000000	8,715405
3845,000000	8,425214
3844,000000	8,132814
3843,000000	7,846078
3842,000000	7,536349
3841,000000	7,203364
3840,000000	6,913929
3839,000000	6,770168
3838,000000	6,836625
3837,000000	7,085833
3836,000000	7,410995
3835,000000	7,700801
3834,000000	7,915640
3833,000000	8,095234
3832,000000	8,290044
3831,000000	8,491554
3830,000000	8,637989
3829,000000	8,689983
3828,000000	8,676154
3827,000000	8,638488
3826,000000	8,541340
3825,000000	8,280545
3824,000000	7,823336
3823,000000	7,322562
3822,000000	7,027860
3821,000000	7,055600
3820,000000	7,267665
3819,000000	7,426498
3818,000000	7,452545
3817,000000	7,496908
3816,000000	7,754722
3815,000000	8,247050
3814,000000	8,805090
3813,000000	9,217055
3812,000000	9,356127
3811,000000	9,199214
3810,000000	8,815909
3809,000000	8,368298
3808,000000	8,055570
3807,000000	7,969921
3806,000000	7,995054
3805,000000	7,908639
3804,000000	7,622670
3803,000000	7,301917
3802,000000	7,206251
3801,000000	7,426137
3800,000000	7,809761
3799,000000	8,142719
3798,000000	8,360174
3797,000000	8,554148
3796,000000	8,820687
3795,000000	9,145181
3794,000000	9,436250
3793,000000	9,625986
3792,000000	9,714592
3791,000000	9,738403
3790,000000	9,720987
3789,000000	9,660985
3788,000000	9,557236
3787,000000	9,438862
3786,000000	9,355889
3785,000000	9,330925
3784,000000	9,319699
3783,000000	9,243862
3782,000000	9,080014
3781,000000	8,909226
3780,000000	8,860263
3779,000000	8,994950
3778,000000	9,255862
3777,000000	9,519655
3776,000000	9,682564
3775,000000	9,692027
3774,000000	9,531381
3773,000000	9,224946
3772,000000	8,866990
3771,000000	8,598354
3770,000000	8,507406
3769,000000	8,560825
3768,000000	8,659457
3767,000000	8,756146
3766,000000	8,878756
3765,000000	9,034439
3764,000000	9,138446
3763,000000	9,083029
3762,000000	8,859860
3761,000000	8,586123
3760,000000	8,407949
3759,000000	8,388249
3758,000000	8,467045
3757,000000	8,497040
3756,000000	8,323606
3755,000000	7,881259
3754,000000	7,249191
3753,000000	6,620700
3752,000000	6,205692
3751,000000	6,121137
3750,000000	6,316368
3749,000000	6,575223
3748,000000	6,644726
3747,000000	6,445097
3746,000000	6,174670
3745,000000	6,159139
3744,000000	6,552694
3743,000000	7,198691
3742,000000	7,772268
3741,000000	8,023643
3740,000000	7,893651
3739,000000	7,476725
3738,000000	6,948585
3737,000000	6,505711
3736,000000	6,290220
3735,000000	6,335051
3734,000000	6,591117
3733,000000	6,995661
3732,000000	7,482371
3731,000000	7,941972
3730,000000	8,237436
3729,000000	8,303411
3728,000000	8,207397
3727,000000	8,085126
3726,000000	8,026272
3725,000000	8,037611
3724,000000	8,098106
3723,000000	8,208513
3722,000000	8,379604
3721,000000	8,602183
3720,000000	8,845895
3719,000000	9,072613
3718,000000	9,228061
3717,000000	9,227974
3716,000000	8,990221
3715,000000	8,513846
3714,000000	7,928182
3713,000000	7,444362
3712,000000	7,239371
3711,000000	7,363974
3710,000000	7,743926
3709,000000	8,240510
3708,000000	8,708069
3707,000000	9,027920
3706,000000	9,129726
3705,000000	9,023070
3704,000000	8,809547
3703,000000	8,644488
3702,000000	8,650156
3701,000000	8,834172
3700,000000	9,093957
3699,000000	9,307112
3698,000000	9,418408
3697,000000	9,436104
3696,000000	9,361665
3695,000000	9,155878
3694,000000	8,784163
3693,000000	8,275839
3692,000000	7,734454
3691,000000	7,310376
3690,000000	7,154960
3689,000000	7,356603
3688,000000	7,872242
3687,000000	8,525329
3686,000000	9,105819
3685,000000	9,483042
3684,000000	9,634298
3683,000000	9,596947
3682,000000	9,416386
3681,000000	9,114305
3680,000000	8,672972
3679,000000	8,069765
3678,000000	7,381494
3677,000000	6,834909
3676,000000	6,672027
3675,000000	6,908036
3674,000000	7,272223
3673,000000	7,453625
3672,000000	7,399139
3671,000000	7,345537
3670,000000	7,562295
3669,000000	8,099935
3668,000000	8,783294
3667,000000	9,387677
3666,000000	9,790535
3665,000000	9,995177
3664,000000	10,068541
3663,000000	10,076029
3662,000000	10,037780
3661,000000	9,918258
3660,000000	9,667719
3659,000000	9,301609
3658,000000	8,945467
3657,000000	8,759004
3656,000000	8,775179
3655,000000	8,820602
3654,000000	8,633789
3653,000000	8,100256
3652,000000	7,364991
3651,000000	6,725723
3650,000000	6,433218
3649,000000	6,576127
3648,000000	7,094727
3647,000000	7,832535
3646,000000	8,585233
3645,000000	9,175054
3644,000000	9,531806
3643,000000	9,699906
3642,000000	9,765855
3641,000000	9,786612
3640,000000	9,780685
3639,000000	9,749900
3638,000000	9,683811
3637,000000	9,567191
3636,000000	9,405097
3635,000000	9,217020
3634,000000	8,976676
3633,000000	8,591723
3632,000000	8,009116
3631,000000	7,360286
3630,000000	6,940460
3629,000000	6,993317
3628,000000	7,504897
3627,000000	8,221161
3626,000000	8,843505
3625,000000	9,194761
3624,000000	9,233943
3623,000000	9,003716
3622,000000	8,609642
3621,000000	8,218037
3620,000000	8,000586
3619,000000	8,033886
3618,000000	8,242399
3617,000000	8,458359
3616,000000	8,556109
3615,000000	8,536078
3614,000000	8,482846
3613,000000	8,455272
3612,000000	8,434923
3611,000000	8,384661
3610,000000	8,334785
3609,000000	8,380742
3608,000000	8,588492
3607,000000	8,918275
3606,000000	9,245310
3605,000000	9,450320
3604,000000	9,491490
3603,000000	9,412511
3602,000000	9,300026
3601,000000	9,223962
3600,000000	9,195735
3599,000000	9,175139
3598,000000	9,121608
3597,000000	9,042983
3596,000000	8,996143
3595,000000	9,036042
3594,000000	9,155471
3593,000000	9,264421
3592,000000	9,236709
3591,000000	9,004267
3590,000000	8,636574
3589,000000	8,322480
3588,000000	8,248841
3587,000000	8,471012
3586,000000	8,887009
3585,000000	9,325082
3584,000000	9,655407
3583,000000	9,841301
3582,000000	9,917553
3581,000000	9,940042
3580,000000	9,948819
3579,000000	9,959323
3578,000000	9,972562
3577,000000	9,988739
3576,000000	10,011938
3575,000000	10,042048
3574,000000	10,060253
3573,000000	10,018242
3572,000000	9,848009
3571,000000	9,506673
3570,000000	9,037752
3569,000000	8,589212
3568,000000	8,342530
3567,000000	8,396935
3566,000000	8,704025
3565,000000	9,111711
3564,000000	9,469967
3563,000000	9,710978
3562,000000	9,851444
3561,000000	9,943905
3560,000000	10,027416
3559,000000	10,108351
3558,000000	10,167225
3557,000000	10,176011
3556,000000	10,119702
3555,000000	10,015353
3554,000000	9,913296
3553,000000	9,866869
3552,000000	9,885615
3551,000000	9,918408
3550,000000	9,893484
3549,000000	9,785126
3548,000000	9,640892
3547,000000	9,545398
3546,000000	9,558035
3545,000000	9,679710
3544,000000	9,864320
3543,000000	10,051564
3542,000000	10,194102
3541,000000	10,268652
3540,000000	10,276163
3539,000000	10,238232
3538,000000	10,191157
3537,000000	10,171048
3536,000000	10,191559
3535,000000	10,232447
3534,000000	10,253717
3533,000000	10,225507
3532,000000	10,146021
3531,000000	10,037254
3530,000000	9,930451
3529,000000	9,853184
3528,000000	9,817208
3527,000000	9,812575
3526,000000	9,820718
3525,000000	9,838041
3524,000000	9,881266
3523,000000	9,963000
3522,000000	10,068550
3521,000000	10,165172
3520,000000	10,232174
3519,000000	10,273106
3518,000000	10,301068
3517,000000	10,321232
3516,000000	10,329543
3515,000000	10,319271
3514,000000	10,284161
3513,000000	10,222582
3512,000000	10,147277
3511,000000	10,088141
3510,000000	10,073868
3509,000000	10,103776
3508,000000	10,139372
3507,000000	10,132322
3506,000000	10,067042
3505,000000	9,978471
3504,000000	9,926352
3503,000000	9,948439
3502,000000	10,033957
3501,000000	10,136261
3500,000000	10,209763
3499,000000	10,237683
3498,000000	10,234680
3497,000000	10,228937
3496,000000	10,240497
3495,000000	10,270285
3494,000000	10,303701
3493,000000	10,323113
3492,000000	10,318494
3491,000000	10,291813
3490,000000	10,256206
3489,000000	10,230320
3488,000000	10,226096
3487,000000	10,236877
3486,000000	10,240117
3485,000000	10,217643
3484,000000	10,175314
3483,000000	10,141351
3482,000000	10,143218
3481,000000	10,185662
3480,000000	10,248116
3479,000000	10,301029
3478,000000	10,326537
3477,000000	10,327658
3476,000000	10,321244
3475,000000	10,322278
3474,000000	10,333877
3473,000000	10,349444
3472,000000	10,360750
3471,000000	10,363159
3470,000000	10,356747
3469,000000	10,346254
3468,000000	10,338489
3467,000000	10,336163
3466,000000	10,334541
3465,000000	10,327144
3464,000000	10,315212
3463,000000	10,308762
3462,000000	10,316810
3461,000000	10,338411
3460,000000	10,364208
3459,000000	10,385371
3458,000000	10,399542
3457,000000	10,409321
3456,000000	10,417600
3455,000000	10,425295
3454,000000	10,431791
3453,000000	10,433324
3452,000000	10,419563
3451,000000	10,376715
3450,000000	10,302369
3449,000000	10,219141
3448,000000	10,166086
3447,000000	10,168010
3446,000000	10,213505
3445,000000	10,268405
3444,000000	10,309056
3443,000000	10,337658
3442,000000	10,366916
3441,000000	10,399601
3440,000000	10,428257
3439,000000	10,447931
3438,000000	10,461037
3437,000000	10,471104
3436,000000	10,478003
3435,000000	10,480449
3434,000000	10,479509
3433,000000	10,478310
3432,000000	10,479981
3431,000000	10,486456
3430,000000	10,497478
3429,000000	10,510453
3428,000000	10,522129
3427,000000	10,529615
3426,000000	10,528700
3425,000000	10,513561
3424,000000	10,482569
3423,000000	10,445577
3422,000000	10,421751
3421,000000	10,426783
3420,000000	10,461257
3419,000000	10,511076
3418,000000	10,558053
3417,000000	10,590577
3416,000000	10,607251
3415,000000	10,613777
3414,000000	10,617106
3413,000000	10,621168
3412,000000	10,626527
3411,000000	10,632466
3410,000000	10,638313
3409,000000	10,643208
3408,000000	10,646042
3407,000000	10,646138
3406,000000	10,643908
3405,000000	10,641045
3404,000000	10,640134
3403,000000	10,642805
3402,000000	10,646986
3401,000000	10,647399
3400,000000	10,641209
3399,000000	10,632729
3398,000000	10,629512
3397,000000	10,633096
3396,000000	10,636913
3395,000000	10,635630
3394,000000	10,634123
3393,000000	10,643618
3392,000000	10,669061
3391,000000	10,702649
3390,000000	10,730151
3389,000000	10,741987
3388,000000	10,738528
3387,000000	10,727845
3386,000000	10,720129
3385,000000	10,722461
3384,000000	10,735600
3383,000000	10,754384
3382,000000	10,771832
3381,000000	10,783950
3380,000000	10,791297
3379,000000	10,796595
3378,000000	10,801618
3377,000000	10,806501
3376,000000	10,811079
3375,000000	10,815575
3374,000000	10,819671
3373,000000	10,821735
3372,000000	10,819649
3371,000000	10,812213
3370,000000	10,799841
3369,000000	10,784704
3368,000000	10,770905
3367,000000	10,763352
3366,000000	10,764683
3365,000000	10,772986
3364,000000	10,783773
3363,000000	10,794238
3362,000000	10,804607
3361,000000	10,815333
3360,000000	10,824689
3359,000000	10,830427
3358,000000	10,833014
3357,000000	10,835874
3356,000000	10,842405
3355,000000	10,853234
3354,000000	10,866132
3353,000000	10,877980
3352,000000	10,886872
3351,000000	10,892876
3350,000000	10,897176
3349,000000	10,900814
3348,000000	10,904308
3347,000000	10,907889
3346,000000	10,911294
3345,000000	10,913639
3344,000000	10,914412
3343,000000	10,914339
3342,000000	10,914077
3341,000000	10,912010
3340,000000	10,905180
3339,000000	10,893453
3338,000000	10,881793
3337,000000	10,877123
3336,000000	10,882967
3335,000000	10,897321
3334,000000	10,914826
3333,000000	10,930202
3332,000000	10,940329
3331,000000	10,944678
3330,000000	10,944526
3329,000000	10,941869
3328,000000	10,938972
3327,000000	10,938277
3326,000000	10,941612
3325,000000	10,948993
3324,000000	10,958625
3323,000000	10,968257
3322,000000	10,976234
3321,000000	10,981717
3320,000000	10,984950
3319,000000	10,987238
3318,000000	10,989386
3317,000000	10,990153
3316,000000	10,987653
3315,000000	10,982435
3314,000000	10,977330
3313,000000	10,973680
3312,000000	10,969918
3311,000000	10,965541
3310,000000	10,964632
3309,000000	10,972634
3308,000000	10,989951
3307,000000	11,010597
3306,000000	11,027405
3305,000000	11,037504
3304,000000	11,042653
3303,000000	11,045733
3302,000000	11,047754
3301,000000	11,047896
3300,000000	11,045944
3299,000000	11,044088
3298,000000	11,045216
3297,000000	11,049097
3296,000000	11,051574
3295,000000	11,048864
3294,000000	11,042148
3293,000000	11,036871
3292,000000	11,037788
3291,000000	11,045474
3290,000000	11,057193
3289,000000	11,069468
3288,000000	11,079582
3287,000000	11,085979
3286,000000	11,088494
3285,000000	11,088400
3284,000000	11,087838
3283,000000	11,088532
3282,000000	11,090335
3281,000000	11,090851
3280,000000	11,087056
3279,000000	11,077923
3278,000000	11,065418
3277,000000	11,053345
3276,000000	11,045891
3275,000000	11,046783
3274,000000	11,057851
3273,000000	11,077178
3272,000000	11,099384
3271,000000	11,118668
3270,000000	11,131719
3269,000000	11,138043
3268,000000	11,139020
3267,000000	11,137481
3266,000000	11,136858
3265,000000	11,139001
3264,000000	11,142837
3263,000000	11,145912
3262,000000	11,146973
3261,000000	11,146588
3260,000000	11,145653
3259,000000	11,144060
3258,000000	11,140817
3257,000000	11,135709
3256,000000	11,131264
3255,000000	11,132577
3254,000000	11,143478
3253,000000	11,162171
3252,000000	11,181892
3251,000000	11,196058
3250,000000	11,201450
3249,000000	11,197082
3248,000000	11,183598
3247,000000	11,166017
3246,000000	11,154123
3245,000000	11,155972
3244,000000	11,170601
3243,000000	11,189246
3242,000000	11,203720
3241,000000	11,211749
3240,000000	11,215381
3239,000000	11,217285
3238,000000	11,219426
3237,000000	11,222924
3236,000000	11,227247
3235,000000	11,230442
3234,000000	11,231241
3233,000000	11,230476
3232,000000	11,230004
3231,000000	11,231088
3230,000000	11,234312
3229,000000	11,240241
3228,000000	11,249083
3227,000000	11,259828
3226,000000	11,270128
3225,000000	11,276979
3224,000000	11,277729
3223,000000	11,271676
3222,000000	11,261859
3221,000000	11,254728
3220,000000	11,255997
3219,000000	11,265272
3218,000000	11,275399
3217,000000	11,279074
3216,000000	11,276337
3215,000000	11,274206
3214,000000	11,278217
3213,000000	11,286302
3212,000000	11,292974
3211,000000	11,297635
3210,000000	11,305601
3209,000000	11,320636
3208,000000	11,339708
3207,000000	11,356262
3206,000000	11,366703
3205,000000	11,371998
3204,000000	11,374401
3203,000000	11,374502
3202,000000	11,371004
3201,000000	11,362629
3200,000000	11,350907
3199,000000	11,341495
3198,000000	11,341175
3197,000000	11,352240
3196,000000	11,370269
3195,000000	11,388143
3194,000000	11,401522
3193,000000	11,410102
3192,000000	11,415473
3191,000000	11,419023
3190,000000	11,421042
3189,000000	11,420488
3188,000000	11,416356
3187,000000	11,410264
3186,000000	11,406737
3185,000000	11,409566
3184,000000	11,417788
3183,000000	11,425916
3182,000000	11,427889
3181,000000	11,421614
3180,000000	11,411178
3179,000000	11,405189
3178,000000	11,410643
3177,000000	11,426821
3176,000000	11,446046
3175,000000	11,460939
3174,000000	11,469823
3173,000000	11,474735
3172,000000	11,477186
3171,000000	11,477899
3170,000000	11,478737
3169,000000	11,481799
3168,000000	11,486948
3167,000000	11,492362
3166,000000	11,497130
3165,000000	11,501735
3164,000000	11,506360
3163,000000	11,510527
3162,000000	11,514236
3161,000000	11,518033
3160,000000	11,522055
3159,000000	11,526137
3158,000000	11,530506
3157,000000	11,535234
3156,000000	11,539442
3155,000000	11,542280
3154,000000	11,544370
3153,000000	11,547158
3152,000000	11,551161
3151,000000	11,555863
3150,000000	11,560831
3149,000000	11,565876
3148,000000	11,570469
3147,000000	11,574105
3146,000000	11,576965
3145,000000	11,579507
3144,000000	11,581895
3143,000000	11,584533
3142,000000	11,588396
3141,000000	11,593856
3140,000000	11,599729
3139,000000	11,604114
3138,000000	11,605244
3137,000000	11,601242
3136,000000	11,591196
3135,000000	11,578535
3134,000000	11,571519
3133,000000	11,577034
3132,000000	11,593258
3131,000000	11,610521
3130,000000	11,620004
3129,000000	11,620615
3128,000000	11,617147
3127,000000	11,613720
3126,000000	11,610464
3125,000000	11,606012
3124,000000	11,601456
3123,000000	11,600302
3122,000000	11,604165
3121,000000	11,609741
3120,000000	11,611773
3119,000000	11,609122
3118,000000	11,606369
3117,000000	11,609121
3116,000000	11,619031
3115,000000	11,633881
3114,000000	11,650238
3113,000000	11,664905
3112,000000	11,675479
3111,000000	11,681818
3110,000000	11,686338
3109,000000	11,691541
3108,000000	11,697493
3107,000000	11,702058
3106,000000	11,702439
3105,000000	11,696050
3104,000000	11,682645
3103,000000	11,667354
3102,000000	11,659420
3101,000000	11,664224
3100,000000	11,677084
3099,000000	11,687572
3098,000000	11,690529
3097,000000	11,690841
3096,000000	11,697254
3095,000000	11,713506
3094,000000	11,735696
3093,000000	11,756491
3092,000000	11,770579
3091,000000	11,777297
3090,000000	11,779361
3089,000000	11,779845
3088,000000	11,780268
3087,000000	11,780819
3086,000000	11,780961
3085,000000	11,779134
3084,000000	11,773441
3083,000000	11,764008
3082,000000	11,754285
3081,000000	11,749055
3080,000000	11,751447
3079,000000	11,761927
3078,000000	11,778591
3077,000000	11,797307
3076,000000	11,812956
3075,000000	11,822644
3074,000000	11,827346
3073,000000	11,829403
3072,000000	11,828903
3071,000000	11,823662
3070,000000	11,812016
3069,000000	11,794791
3068,000000	11,775645
3067,000000	11,760768
3066,000000	11,756704
3065,000000	11,766010
3064,000000	11,784685
3063,000000	11,804956
3062,000000	11,820271
3061,000000	11,827258
3060,000000	11,825159
3059,000000	11,816653
3058,000000	11,808666
3057,000000	11,809118
3056,000000	11,820949
3055,000000	11,839738
3054,000000	11,857326
3053,000000	11,867320
3052,000000	11,868167
3051,000000	11,863558
3050,000000	11,860253
3049,000000	11,863704
3048,000000	11,874167
3047,000000	11,887146
3046,000000	11,897762
3045,000000	11,904290
3044,000000	11,908010
3043,000000	11,910984
3042,000000	11,914403
3041,000000	11,917902
3040,000000	11,919732
3039,000000	11,917906
3038,000000	11,911728
3037,000000	11,901897
3036,000000	11,889197
3035,000000	11,873906
3034,000000	11,857481
3033,000000	11,844730
3032,000000	11,842525
3031,000000	11,854393
3030,000000	11,875627
3029,000000	11,895313
3028,000000	11,904882
3027,000000	11,904440
3026,000000	11,900172
3025,000000	11,896730
3024,000000	11,894218
3023,000000	11,891285
3022,000000	11,887617
3021,000000	11,882575
3020,000000	11,874680
3019,000000	11,864442
3018,000000	11,855811
3017,000000	11,852498
3016,000000	11,854190
3015,000000	11,858289
3014,000000	11,864508
3013,000000	11,875757
3012,000000	11,894650
3011,000000	11,920468
3010,000000	11,948908
3009,000000	11,973924
3008,000000	11,990653
3007,000000	11,998574
3006,000000	12,002013
3005,000000	12,006593
3004,000000	12,015021
3003,000000	12,026166
3002,000000	12,037263
3001,000000	12,045880
3000,000000	12,050766
2999,000000	12,051992
2998,000000	12,050527
2997,000000	12,047464
2996,000000	12,044103
2995,000000	12,042667
2994,000000	12,045233
2993,000000	12,051109
2992,000000	12,056553
2991,000000	12,058298
2990,000000	12,056747
2989,000000	12,054832
2988,000000	12,054713
2987,000000	12,056408
2986,000000	12,058651
2985,000000	12,059760
2984,000000	12,058207
2983,000000	12,053465
2982,000000	12,046313
2981,000000	12,037983
2980,000000	12,029367
2979,000000	12,020993
2978,000000	12,012647
2977,000000	12,002960
2976,000000	11,990658
2975,000000	11,976633
2974,000000	11,963237
2973,000000	11,950880
2972,000000	11,936943
2971,000000	11,918896
2970,000000	11,897112
2969,000000	11,873749
2968,000000	11,850452
2967,000000	11,828403
2966,000000	11,809031
2965,000000	11,793131
2964,000000	11,780008
2963,000000	11,768754
2962,000000	11,759536
2961,000000	11,752783
2960,000000	11,748112
2959,000000	11,744957
2958,000000	11,743328
2957,000000	11,743017
2956,000000	11,743182
2955,000000	11,743504
2954,000000	11,744585
2953,000000	11,746341
2952,000000	11,747158
2951,000000	11,745681
2950,000000	11,742171
2949,000000	11,737261
2948,000000	11,730594
2947,000000	11,721698
2946,000000	11,710903
2945,000000	11,698234
2944,000000	11,682697
2943,000000	11,663692
2942,000000	11,642026
2941,000000	11,618592
2940,000000	11,593475
2939,000000	11,567440
2938,000000	11,542725
2937,000000	11,520956
2936,000000	11,501434
2935,000000	11,482748
2934,000000	11,464850
2933,000000	11,448189
2932,000000	11,432155
2931,000000	11,415917
2930,000000	11,399974
2929,000000	11,385670
2928,000000	11,374196
2927,000000	11,367217
2926,000000	11,367119
2925,000000	11,375353
2924,000000	11,391307
2923,000000	11,413901
2922,000000	11,442987
2921,000000	11,477866
2920,000000	11,515988
2919,000000	11,554632
2918,000000	11,593103
2917,000000	11,631701
2916,000000	11,669645
2915,000000	11,705488
2914,000000	11,738734
2913,000000	11,769697
2912,000000	11,798339
2911,000000	11,824451
2910,000000	11,848270
2909,000000	11,869996
2908,000000	11,889575
2907,000000	11,907733
2906,000000	11,926080
2905,000000	11,945103
2904,000000	11,963304
2903,000000	11,979359
2902,000000	11,993944
2901,000000	12,008289
2900,000000	12,022233
2899,000000	12,035063
2898,000000	12,047105
2897,000000	12,059081
2896,000000	12,070861
2895,000000	12,082077
2894,000000	12,093091
2893,000000	12,104191
2892,000000	12,114761
2891,000000	12,124255
2890,000000	12,132969
2889,000000	12,140914
2888,000000	12,147141
2887,000000	12,151187
2886,000000	12,154002
2885,000000	12,156407
2884,000000	12,157961
2883,000000	12,158384
2882,000000	12,158577
2881,000000	12,158918
2880,000000	12,157938
2879,000000	12,154087
2878,000000	12,147651
2877,000000	12,139656
2876,000000	12,130186
2875,000000	12,119118
2874,000000	12,107155
2873,000000	12,094599
2872,000000	12,080201
2871,000000	12,062683
2870,000000	12,042428
2869,000000	12,020404
2868,000000	11,996624
2867,000000	11,970964
2866,000000	11,944485
2865,000000	11,918583
2864,000000	11,894031
2863,000000	11,872090
2862,000000	11,855306
2861,000000	11,845761
2860,000000	11,843343
2859,000000	11,846836
2858,000000	11,855597
2857,000000	11,869041
2856,000000	11,885888
2855,000000	11,905287
2854,000000	11,927467
2853,000000	11,952038
2852,000000	11,977055
2851,000000	12,001170
2850,000000	12,025548
2849,000000	12,052148
2848,000000	12,081202
2847,000000	12,111683
2846,000000	12,142910
2845,000000	12,174185
2844,000000	12,204022
2843,000000	12,231352
2842,000000	12,256683
2841,000000	12,280718
2840,000000	12,302840
2839,000000	12,322268
2838,000000	12,339636
2837,000000	12,356107
2836,000000	12,371840
2835,000000	12,386505
2834,000000	12,400318
2833,000000	12,413467
2832,000000	12,425566
2831,000000	12,436695
2830,000000	12,447749
2829,000000	12,458778
2828,000000	12,468430
2827,000000	12,476146
2826,000000	12,483444
2825,000000	12,491701
2824,000000	12,500140
2823,000000	12,507401
2822,000000	12,513637
2821,000000	12,519601
2820,000000	12,525011
2819,000000	12,529457
2818,000000	12,533748
2817,000000	12,538810
2816,000000	12,544284
2815,000000	12,549513
2814,000000	12,554788
2813,000000	12,560301
2812,000000	12,565111
2811,000000	12,568489
2810,000000	12,571213
2809,000000	12,574268
2808,000000	12,577443
2807,000000	12,580344
2806,000000	12,583429
2805,000000	12,586821
2804,000000	12,589473
2803,000000	12,590873
2802,000000	12,592188
2801,000000	12,594434
2800,000000	12,596895
2799,000000	12,598655
2798,000000	12,600229
2797,000000	12,602346
2796,000000	12,604612
2795,000000	12,606903
2794,000000	12,610519
2793,000000	12,616290
2792,000000	12,622877
2791,000000	12,628527
2790,000000	12,633313
2789,000000	12,638191
2788,000000	12,643217
2787,000000	12,648244
2786,000000	12,654045
2785,000000	12,661090
2784,000000	12,668412
2783,000000	12,675129
2782,000000	12,681846
2781,000000	12,689103
2780,000000	12,695830
2779,000000	12,700949
2778,000000	12,705232
2777,000000	12,709972
2776,000000	12,715016
2775,000000	12,719626
2774,000000	12,724021
2773,000000	12,728493
2772,000000	12,732216
2771,000000	12,734558
2770,000000	12,736507
2769,000000	12,739222
2768,000000	12,742269
2767,000000	12,744707
2766,000000	12,746808
2765,000000	12,749246
2764,000000	12,751698
2763,000000	12,753671
2762,000000	12,755679
2761,000000	12,758270
2760,000000	12,760948
2759,000000	12,763297
2758,000000	12,765964
2757,000000	12,769304
2756,000000	12,772358
2755,000000	12,774468
2754,000000	12,776613
2753,000000	12,779854
2752,000000	12,783639
2751,000000	12,786888
2750,000000	12,789465
2749,000000	12,791451
2748,000000	12,792372
2747,000000	12,792390
2746,000000	12,792867
2745,000000	12,794514
2744,000000	12,796428
2743,000000	12,798014
2742,000000	12,800198
2741,000000	12,803490
2740,000000	12,806621
2739,000000	12,808573
2738,000000	12,810321
2737,000000	12,813025
2736,000000	12,816117
2735,000000	12,818656
2734,000000	12,821036
2733,000000	12,823860
2732,000000	12,826643
2731,000000	12,829094
2730,000000	12,832096
2729,000000	12,835928
2728,000000	12,839121
2727,000000	12,840630
2726,000000	12,841609
2725,000000	12,843517
2724,000000	12,846066
2723,000000	12,848514
2722,000000	12,851339
2721,000000	12,854993
2720,000000	12,858576
2719,000000	12,861342
2718,000000	12,864003
2717,000000	12,867077
2716,000000	12,869645
2715,000000	12,871283
2714,000000	12,873403
2713,000000	12,876987
2712,000000	12,880655
2711,000000	12,882828
2710,000000	12,884168
2709,000000	12,886080
2708,000000	12,888420
2707,000000	12,890527
2706,000000	12,893008
2705,000000	12,896566
2704,000000	12,900391
2703,000000	12,903510
2702,000000	12,906452
2701,000000	12,910010
2700,000000	12,913751
2699,000000	12,917242
2698,000000	12,921259
2697,000000	12,926152
2696,000000	12,930623
2695,000000	12,933748
2694,000000	12,936701
2693,000000	12,940834
2692,000000	12,945600
2691,000000	12,949914
2690,000000	12,953914
2689,000000	12,957755
2688,000000	12,960414
2687,000000	12,961498
2686,000000	12,962551
2685,000000	12,964807
2684,000000	12,967275
2683,000000	12,968796
2682,000000	12,970204
2681,000000	12,972570
2680,000000	12,975042
2679,000000	12,976434
2678,000000	12,977367
2677,000000	12,978886
2676,000000	12,980488
2675,000000	12,981443
2674,000000	12,982513
2673,000000	12,984461
2672,000000	12,986419
2671,000000	12,987654
2670,000000	12,989324
2669,000000	12,992418
2668,000000	12,995560
2667,000000	12,996994
2666,000000	12,997328
2665,000000	12,998197
2664,000000	12,999560
2663,000000	13,000445
2662,000000	13,001144
2661,000000	13,002595
2660,000000	13,004607
2659,000000	13,006600
2658,000000	13,009015
2657,000000	13,012276
2656,000000	13,015439
2655,000000	13,017511
2654,000000	13,018966
2653,000000	13,020573
2652,000000	13,022057
2651,000000	13,023351
2650,000000	13,025529
2649,000000	13,028914
2648,000000	13,031867
2647,000000	13,033137
2646,000000	13,033828
2645,000000	13,035385
2644,000000	13,037322
2643,000000	13,038753
2642,000000	13,040529
2641,000000	13,043784
2640,000000	13,047820
2639,000000	13,051283
2638,000000	13,054119
2637,000000	13,056729
2636,000000	13,058628
2635,000000	13,059637
2634,000000	13,060922
2633,000000	13,063217
2632,000000	13,065513
2631,000000	13,067056
2630,000000	13,068887
2629,000000	13,071825
2628,000000	13,074676
2627,000000	13,076283
2626,000000	13,077563
2625,000000	13,079718
2624,000000	13,082160
2623,000000	13,084005
2622,000000	13,085927
2621,000000	13,088608
2620,000000	13,091113
2619,000000	13,092649
2618,000000	13,094236
2617,000000	13,096783
2616,000000	13,099276
2615,000000	13,100796
2614,000000	13,102484
2613,000000	13,105470
2612,000000	13,108615
2611,000000	13,110376
2610,000000	13,111292
2609,000000	13,112586
2608,000000	13,114012
2607,000000	13,115074
2606,000000	13,116638
2605,000000	13,119218
2604,000000	13,121329
2603,000000	13,121729
2602,000000	13,121651
2601,000000	13,122756
2600,000000	13,124453
2599,000000	13,125398
2598,000000	13,125979
2597,000000	13,127076
2596,000000	13,127905
2595,000000	13,127408
2594,000000	13,126490
2593,000000	13,126664
2592,000000	13,127681
2591,000000	13,128447
2590,000000	13,129062
2589,000000	13,130058
2588,000000	13,130941
2587,000000	13,131308
2586,000000	13,132178
2585,000000	13,134479
2584,000000	13,137539
2583,000000	13,140523
2582,000000	13,143822
2581,000000	13,147553
2580,000000	13,150494
2579,000000	13,152103
2578,000000	13,153766
2577,000000	13,156405
2576,000000	13,158765
2575,000000	13,159776
2574,000000	13,160533
2573,000000	13,162150
2572,000000	13,163761
2571,000000	13,164581
2570,000000	13,165834
2569,000000	13,168459
2568,000000	13,170989
2567,000000	13,171895
2566,000000	13,172140
2565,000000	13,173182
2564,000000	13,174442
2563,000000	13,174973
2562,000000	13,175701
2561,000000	13,177639
2560,000000	13,179660
2559,000000	13,180401
2558,000000	13,180628
2557,000000	13,181584
2556,000000	13,182700
2555,000000	13,183212
2554,000000	13,184128
2553,000000	13,186338
2552,000000	13,188534
2551,000000	13,189348
2550,000000	13,189831
2549,000000	13,191522
2548,000000	13,193805
2547,000000	13,195393
2546,000000	13,196693
2545,000000	13,198417
2544,000000	13,199669
2543,000000	13,199708
2542,000000	13,199796
2541,000000	13,200995
2540,000000	13,202008
2539,000000	13,201621
2538,000000	13,201392
2537,000000	13,203303
2536,000000	13,206495
2535,000000	13,208833
2534,000000	13,210173
2533,000000	13,211531
2532,000000	13,212646
2531,000000	13,212963
2530,000000	13,213525
2529,000000	13,215457
2528,000000	13,217874
2527,000000	13,219570
2526,000000	13,221224
2525,000000	13,223683
2524,000000	13,225718
2523,000000	13,225929
2522,000000	13,225346
2521,000000	13,225813
2520,000000	13,227209
2519,000000	13,228509
2518,000000	13,229962
2517,000000	13,231895
2516,000000	13,233038
2515,000000	13,232422
2514,000000	13,231499
2513,000000	13,232006
2512,000000	13,233253
2511,000000	13,233731
2510,000000	13,233764
2509,000000	13,234251
2508,000000	13,234415
2507,000000	13,233235
2506,000000	13,231560
2505,000000	13,230563
2504,000000	13,229640
2503,000000	13,228138
2502,000000	13,227374
2501,000000	13,228497
2500,000000	13,229968
2499,000000	13,229754
2498,000000	13,228451
2497,000000	13,227859
2496,000000	13,227923
2495,000000	13,227565
2494,000000	13,227123
2493,000000	13,227480
2492,000000	13,228059
2491,000000	13,227893
2490,000000	13,227419
2489,000000	13,227153
2488,000000	13,226198
2487,000000	13,224100
2486,000000	13,222536
2485,000000	13,222946
2484,000000	13,224210
2483,000000	13,224771
2482,000000	13,225239
2481,000000	13,226612
2480,000000	13,227823
2479,000000	13,227592
2478,000000	13,226928
2477,000000	13,227353
2476,000000	13,228190
2475,000000	13,228125
2474,000000	13,227785
2473,000000	13,228301
2472,000000	13,228882
2471,000000	13,228273
2470,000000	13,227130
2469,000000	13,226651
2468,000000	13,226412
2467,000000	13,225776
2466,000000	13,225747
2465,000000	13,227179
2464,000000	13,228860
2463,000000	13,229600
2462,000000	13,230349
2461,000000	13,231986
2460,000000	13,233097
2459,000000	13,232413
2458,000000	13,231426
2457,000000	13,231920
2456,000000	13,232908
2455,000000	13,232766
2454,000000	13,232407
2453,000000	13,233431
2452,000000	13,234941
2451,000000	13,235232
2450,000000	13,234994
2449,000000	13,235830
2448,000000	13,237106
2447,000000	13,237302
2446,000000	13,237125
2445,000000	13,238347
2444,000000	13,240722
2443,000000	13,242786
2442,000000	13,244511
2441,000000	13,246505
2440,000000	13,247934
2439,000000	13,247911
2438,000000	13,247701
2437,000000	13,248861
2436,000000	13,250463
2435,000000	13,250717
2434,000000	13,250065
2433,000000	13,250085
2432,000000	13,250672
2431,000000	13,250906
2430,000000	13,251336
2429,000000	13,252734
2428,000000	13,253896
2427,000000	13,253355
2426,000000	13,252082
2425,000000	13,251874
2424,000000	13,252283
2423,000000	13,251783
2422,000000	13,250729
2421,000000	13,250489
2420,000000	13,250745
2419,000000	13,250326
2418,000000	13,249670
2417,000000	13,249905
2416,000000	13,250500
2415,000000	13,250252
2414,000000	13,249611
2413,000000	13,249657
2412,000000	13,249895
2411,000000	13,249384
2410,000000	13,248884
2409,000000	13,249479
2408,000000	13,250247
2407,000000	13,249718
2406,000000	13,248508
2405,000000	13,248112
2404,000000	13,248234
2403,000000	13,247767
2402,000000	13,247282
2401,000000	13,248088
2400,000000	13,249750
2399,000000	13,250897
2398,000000	13,251464
2397,000000	13,251953
2396,000000	13,251553
2395,000000	13,249293
2394,000000	13,245625
2393,000000	13,240315
2392,000000	13,229798
2391,000000	13,208027
2390,000000	13,169217
2389,000000	13,105653
2388,000000	13,004320
2387,000000	12,849537
2386,000000	12,626246
2385,000000	12,323515
2384,000000	11,933655
2383,000000	11,455081
2382,000000	10,897851
2381,000000	10,280516
2380,000000	9,626070
2379,000000	8,956705
2378,000000	8,292448
2377,000000	7,649293
2376,000000	7,036151
2375,000000	6,457033
2374,000000	5,915057
2373,000000	5,414345
2372,000000	4,956830
2371,000000	4,542868
2370,000000	4,172829
2369,000000	3,847381
2368,000000	3,565874
2367,000000	3,324753
2366,000000	3,122432
2365,000000	2,959967
2364,000000	2,837261
2363,000000	2,751125
2362,000000	2,697220
2361,000000	2,676360
2360,000000	2,693833
2359,000000	2,754976
2358,000000	2,866060
2357,000000	3,034835
2356,000000	3,270904
2355,000000	3,584544
2354,000000	3,992371
2353,000000	4,517287
2352,000000	5,151110
2351,000000	5,796976
2350,000000	6,261311
2349,000000	6,357014
2348,000000	6,046968
2347,000000	5,489243
2346,000000	4,923357
2345,000000	4,508877
2344,000000	4,268153
2343,000000	4,147810
2342,000000	4,099879
2341,000000	4,098990
2340,000000	4,127010
2339,000000	4,168308
2338,000000	4,219074
2337,000000	4,279994
2336,000000	4,342940
2335,000000	4,392356
2334,000000	4,420532
2333,000000	4,437241
2332,000000	4,465088
2331,000000	4,528497
2330,000000	4,641167
2329,000000	4,795956
2328,000000	4,967348
2327,000000	5,128013
2326,000000	5,265624
2325,000000	5,387614
2324,000000	5,514202
2323,000000	5,670088
2322,000000	5,874605
2321,000000	6,133274
2320,000000	6,436977
2319,000000	6,767167
2318,000000	7,099602
2317,000000	7,406371
2316,000000	7,666188
2315,000000	7,879819
2314,000000	8,071077
2313,000000	8,268837
2312,000000	8,488862
2311,000000	8,732643
2310,000000	8,995233
2309,000000	9,269635
2308,000000	9,547994
2307,000000	9,824081
2306,000000	10,092360
2305,000000	10,343414
2304,000000	10,566156
2303,000000	10,758247
2302,000000	10,929223
2301,000000	11,090241
2300,000000	11,244313
2299,000000	11,390201
2298,000000	11,529265
2297,000000	11,663566
2296,000000	11,792241
2295,000000	11,914336
2294,000000	12,032456
2293,000000	12,148832
2292,000000	12,261463
2291,000000	12,368371
2290,000000	12,471943
2289,000000	12,575276
2288,000000	12,677415
2287,000000	12,774935
2286,000000	12,864279
2285,000000	12,938454
2284,000000	12,986872
2283,000000	13,004341
2282,000000	12,997016
2281,000000	12,976466
2280,000000	12,950412
2279,000000	12,923111
2278,000000	12,899433
2277,000000	12,882554
2276,000000	12,870833
2275,000000	12,861372
2274,000000	12,854839
2273,000000	12,852727
2272,000000	12,853375
2271,000000	12,854598
2270,000000	12,857535
2269,000000	12,863919
2268,000000	12,872539
2267,000000	12,882104
2266,000000	12,894294
2265,000000	12,910297
2264,000000	12,927576
2263,000000	12,943760
2262,000000	12,960453
2261,000000	12,979391
2260,000000	12,998456
2259,000000	13,015418
2258,000000	13,032038
2257,000000	13,050403
2256,000000	13,068574
2255,000000	13,084143
2254,000000	13,098754
2253,000000	13,114943
2252,000000	13,131493
2251,000000	13,145989
2250,000000	13,158938
2249,000000	13,171544
2248,000000	13,182629
2247,000000	13,191458
2246,000000	13,200327
2245,000000	13,210564
2244,000000	13,219452
2243,000000	13,224882
2242,000000	13,229434
2241,000000	13,235848
2240,000000	13,242293
2239,000000	13,246334
2238,000000	13,249897
2237,000000	13,255650
2236,000000	13,261870
2235,000000	13,265565
2234,000000	13,267647
2233,000000	13,270652
2232,000000	13,274209
2231,000000	13,277013
2230,000000	13,280268
2229,000000	13,285095
2228,000000	13,289445
2227,000000	13,291561
2226,000000	13,293350
2225,000000	13,296547
2224,000000	13,298841
2223,000000	13,297864
2222,000000	13,295653
2221,000000	13,295026
2220,000000	13,294961
2219,000000	13,293517
2218,000000	13,291974
2217,000000	13,291906
2216,000000	13,291689
2215,000000	13,289986
2214,000000	13,289240
2213,000000	13,291433
2212,000000	13,293894
2211,000000	13,293547
2210,000000	13,291868
2209,000000	13,291435
2208,000000	13,291134
2207,000000	13,289266
2206,000000	13,287672
2205,000000	13,288366
2204,000000	13,289378
2203,000000	13,288465
2202,000000	13,287480
2201,000000	13,288786
2200,000000	13,290707
2199,000000	13,290950
2198,000000	13,290928
2197,000000	13,292355
2196,000000	13,293234
2195,000000	13,291691
2194,000000	13,290154
2193,000000	13,291111
2192,000000	13,292456
2191,000000	13,291560
2190,000000	13,290291
2189,000000	13,291158
2188,000000	13,292373
2187,000000	13,291561
2186,000000	13,290746
2185,000000	13,292506
2184,000000	13,294738
2183,000000	13,294387
2182,000000	13,292895
2181,000000	13,293008
2180,000000	13,293476
2179,000000	13,292100
2178,000000	13,290524
2177,000000	13,290945
2176,000000	13,291216
2175,000000	13,288424
2174,000000	13,284223
2173,000000	13,281682
2172,000000	13,280011
2171,000000	13,277298
2170,000000	13,275211
2169,000000	13,275809
2168,000000	13,276803
2167,000000	13,274987
2166,000000	13,271463
2165,000000	13,268751
2164,000000	13,266010
2163,000000	13,261973
2162,000000	13,259244
2161,000000	13,260478
2160,000000	13,263302
2159,000000	13,263985
2158,000000	13,263077
2157,000000	13,262756
2156,000000	13,261933
2155,000000	13,259052
2154,000000	13,256322
2153,000000	13,256142
2152,000000	13,256316
2151,000000	13,253862
2150,000000	13,250305
2149,000000	13,248459
2148,000000	13,247292
2147,000000	13,244960
2146,000000	13,243418
2145,000000	13,244788
2144,000000	13,246487
2143,000000	13,245127
2142,000000	13,242078
2141,000000	13,239947
2140,000000	13,237053
2139,000000	13,230848
2138,000000	13,223891
2137,000000	13,220873
2136,000000	13,222200
2135,000000	13,225288
2134,000000	13,229227
2133,000000	13,233492
2132,000000	13,235218
2131,000000	13,232842
2130,000000	13,229566
2129,000000	13,228607
2128,000000	13,228155
2127,000000	13,225599
2126,000000	13,222993
2125,000000	13,223347
2124,000000	13,224908
2123,000000	13,224433
2122,000000	13,222876
2121,000000	13,222739
2120,000000	13,222686
2119,000000	13,219851
2118,000000	13,214888
2117,000000	13,210339
2116,000000	13,206989
2115,000000	13,205579
2114,000000	13,208451
2113,000000	13,215184
2112,000000	13,220450
2111,000000	13,220546
2110,000000	13,218422
2109,000000	13,218192
2108,000000	13,219138
2107,000000	13,219336
2106,000000	13,220392
2105,000000	13,223650
2104,000000	13,226202
2103,000000	13,225756
2102,000000	13,225104
2101,000000	13,227003
2100,000000	13,229041
2099,000000	13,228555
2098,000000	13,227895
2097,000000	13,229795
2096,000000	13,231837
2095,000000	13,230309
2094,000000	13,225048
2093,000000	13,216431
2092,000000	13,203562
2091,000000	13,190149
2090,000000	13,185633
2089,000000	13,194102
2088,000000	13,207826
2087,000000	13,217305
2086,000000	13,222261
2085,000000	13,226664
2084,000000	13,229686
2083,000000	13,228807
2082,000000	13,226209
2081,000000	13,224741
2080,000000	13,222535
2079,000000	13,218242
2078,000000	13,216094
2077,000000	13,219149
2076,000000	13,223095
2075,000000	13,223630
2074,000000	13,223898
2073,000000	13,227787
2072,000000	13,232123
2071,000000	13,232493
2070,000000	13,229361
2069,000000	13,220699
2068,000000	13,197818
2067,000000	13,160335
2066,000000	13,128192
2065,000000	13,124621
2064,000000	13,149844
2063,000000	13,182560
2062,000000	13,205155
2061,000000	13,216395
2060,000000	13,222124
2059,000000	13,225922
2058,000000	13,229901
2057,000000	13,235177
2056,000000	13,239476
2055,000000	13,240330
2054,000000	13,239997
2053,000000	13,241838
2052,000000	13,244225
2051,000000	13,243954
2050,000000	13,242385
2049,000000	13,242108
2048,000000	13,240935
2047,000000	13,235530
2046,000000	13,226533
2045,000000	13,214025
2044,000000	13,194295
2043,000000	13,169732
2042,000000	13,155394
2041,000000	13,164602
2040,000000	13,191515
2039,000000	13,217835
2038,000000	13,233801
2037,000000	13,242452
2036,000000	13,247394
2035,000000	13,248253
2034,000000	13,247008
2033,000000	13,247743
2032,000000	13,249664
2031,000000	13,248641
2030,000000	13,245065
2029,000000	13,242713
2028,000000	13,241418
2027,000000	13,238519
2026,000000	13,235530
2025,000000	13,235803
2024,000000	13,237800
2023,000000	13,236674
2022,000000	13,227758
2021,000000	13,202373
2020,000000	13,150122
2019,000000	13,078894
2018,000000	13,025628
2017,000000	13,028719
2016,000000	13,087938
2015,000000	13,164543
2014,000000	13,221344
2013,000000	13,249253
2012,000000	13,257014
2011,000000	13,253272
2010,000000	13,245124
2009,000000	13,240563
2008,000000	13,242479
2007,000000	13,246811
2006,000000	13,250728
2005,000000	13,255484
2004,000000	13,259396
2003,000000	13,257160
2002,000000	13,248577
2001,000000	13,239726
2000,000000	13,234231
1999,000000	13,232233
1998,000000	13,235398
1997,000000	13,236643
1996,000000	13,205200
1995,000000	13,107181
1994,000000	12,956170
1993,000000	12,826433
1992,000000	12,792345
1991,000000	12,857936
1990,000000	12,962840
1989,000000	13,050852
1988,000000	13,112563
1987,000000	13,163741
1986,000000	13,208038
1985,000000	13,236113
1984,000000	13,246312
1983,000000	13,248063
1982,000000	13,248492
1981,000000	13,247533
1980,000000	13,244946
1979,000000	13,242762
1978,000000	13,241338
1977,000000	13,239199
1976,000000	13,236860
1975,000000	13,236427
1974,000000	13,238075
1973,000000	13,239078
1972,000000	13,230427
1971,000000	13,192162
1970,000000	13,105722
1969,000000	12,986087
1968,000000	12,893303
1967,000000	12,888661
1966,000000	12,974030
1965,000000	13,088073
1964,000000	13,167183
1963,000000	13,196615
1962,000000	13,199795
1961,000000	13,199063
1960,000000	13,200280
1959,000000	13,200894
1958,000000	13,196283
1957,000000	13,183914
1956,000000	13,171199
1955,000000	13,172761
1954,000000	13,192119
1953,000000	13,215370
1952,000000	13,228665
1951,000000	13,229956
1950,000000	13,218548
1949,000000	13,188279
1948,000000	13,137231
1947,000000	13,063421
1946,000000	12,945803
1945,000000	12,765782
1944,000000	12,570988
1943,000000	12,480097
1942,000000	12,576966
1941,000000	12,811913
1940,000000	13,045029
1939,000000	13,181603
1938,000000	13,229920
1937,000000	13,239549
1936,000000	13,236010
1935,000000	13,225108
1934,000000	13,217344
1933,000000	13,221115
1932,000000	13,231117
1931,000000	13,239129
1930,000000	13,245824
1929,000000	13,252281
1928,000000	13,246228
1927,000000	13,198682
1926,000000	13,077530
1925,000000	12,889236
1924,000000	12,712486
1923,000000	12,644373
1922,000000	12,675813
1921,000000	12,667056
1920,000000	12,514764
1919,000000	12,316594
1918,000000	12,287188
1917,000000	12,506581
1916,000000	12,832918
1915,000000	13,073991
1914,000000	13,162223
1913,000000	13,135143
1912,000000	13,037325
1911,000000	12,912147
1910,000000	12,830538
1909,000000	12,846542
1908,000000	12,936859
1907,000000	13,034101
1906,000000	13,102545
1905,000000	13,146890
1904,000000	13,172238
1903,000000	13,179609
1902,000000	13,184216
1901,000000	13,198360
1900,000000	13,203540
1899,000000	13,167423
1898,000000	13,082174
1897,000000	12,974925
1896,000000	12,893948
1895,000000	12,881878
1894,000000	12,924439
1893,000000	12,922619
1892,000000	12,780126
1891,000000	12,545687
1890,000000	12,407568
1889,000000	12,494839
1888,000000	12,733742
1887,000000	12,948084
1886,000000	13,053739
1885,000000	13,093237
1884,000000	13,121806
1883,000000	13,146058
1882,000000	13,160109
1881,000000	13,170409
1880,000000	13,175962
1879,000000	13,171145
1878,000000	13,166911
1877,000000	13,176365
1876,000000	13,188835
1875,000000	13,181067
1874,000000	13,126151
1873,000000	12,957413
1872,000000	12,586116
1871,000000	12,034125
1870,000000	11,521831
1869,000000	11,325963
1868,000000	11,536278
1867,000000	11,997239
1866,000000	12,476683
1865,000000	12,832258
1864,000000	13,028151
1863,000000	13,090533
1862,000000	13,082424
1861,000000	13,068665
1860,000000	13,070877
1859,000000	13,077282
1858,000000	13,089849
1857,000000	13,121524
1856,000000	13,156806
1855,000000	13,166233
1854,000000	13,157045
1853,000000	13,154262
1852,000000	13,136251
1851,000000	13,054675
1850,000000	12,908090
1849,000000	12,719021
1848,000000	12,434368
1847,000000	11,961349
1846,000000	11,365173
1845,000000	10,944853
1844,000000	11,001975
1843,000000	11,536804
1842,000000	12,231307
1841,000000	12,733938
1840,000000	12,922146
1839,000000	12,906180
1838,000000	12,851927
1837,000000	12,845655
1836,000000	12,888108
1835,000000	12,925172
1834,000000	12,848212
1833,000000	12,535725
1832,000000	11,997270
1831,000000	11,473574
1830,000000	11,274729
1829,000000	11,457445
1828,000000	11,742861
1827,000000	11,844622
1826,000000	11,796759
1825,000000	11,861445
1824,000000	12,163975
1823,000000	12,557016
1822,000000	12,839360
1821,000000	12,959411
1820,000000	12,974379
1819,000000	12,936209
1818,000000	12,890133
1817,000000	12,890475
1816,000000	12,934600
1815,000000	12,928649
1814,000000	12,786316
1813,000000	12,539982
1812,000000	12,313187
1811,000000	12,214054
1810,000000	12,274706
1809,000000	12,451801
1808,000000	12,650718
1807,000000	12,775873
1806,000000	12,782098
1805,000000	12,663979
1804,000000	12,415642
1803,000000	12,062520
1802,000000	11,725010
1801,000000	11,566313
1800,000000	11,644376
1799,000000	11,863515
1798,000000	12,077100
1797,000000	12,157926
1796,000000	11,984979
1795,000000	11,497518
1794,000000	10,848049
1793,000000	10,396883
1792,000000	10,450230
1791,000000	10,997141
1790,000000	11,734818
1789,000000	12,312306
1788,000000	12,535455
1787,000000	12,439237
1786,000000	12,235012
1785,000000	12,129626
1784,000000	12,140255
1783,000000	12,126238
1782,000000	12,021788
1781,000000	11,946009
1780,000000	12,023557
1779,000000	12,193017
1778,000000	12,274587
1777,000000	12,137136
1776,000000	11,718940
1775,000000	11,010080
1774,000000	10,171359
1773,000000	9,579594
1772,000000	9,549907
1771,000000	10,000560
1770,000000	10,553667
1769,000000	10,975300
1768,000000	11,355952
1767,000000	11,813576
1766,000000	12,194282
1765,000000	12,212873
1764,000000	11,824450
1763,000000	11,337236
1762,000000	11,131641
1761,000000	11,299707
1760,000000	11,586439
1759,000000	11,682646
1758,000000	11,570297
1757,000000	11,516132
1756,000000	11,681816
1755,000000	11,847071
1754,000000	11,636566
1753,000000	10,988186
1752,000000	10,250302
1751,000000	9,807956
1750,000000	9,765046
1749,000000	10,005701
1748,000000	10,391144
1747,000000	10,794119
1746,000000	11,075618
1745,000000	11,169204
1744,000000	11,127003
1743,000000	10,999791
1742,000000	10,768949
1741,000000	10,501769
1740,000000	10,426728
1739,000000	10,642048
1738,000000	10,800814
1737,000000	10,383259
1736,000000	9,357072
1735,000000	8,375842
1734,000000	8,162473
1733,000000	8,801232
1732,000000	9,774806
1731,000000	10,581639
1730,000000	11,132333
1729,000000	11,575238
1728,000000	11,958785
1727,000000	12,185228
1726,000000	12,198551
1725,000000	12,087343
1724,000000	11,991946
1723,000000	11,918770
1722,000000	11,674067
1721,000000	11,004974
1720,000000	9,896644
1719,000000	8,724048
1718,000000	8,017258
1717,000000	8,034730
1716,000000	8,614345
1715,000000	9,429411
1714,000000	10,265080
1713,000000	11,004226
1712,000000	11,513432
1711,000000	11,699895
1710,000000	11,603549
1709,000000	11,304194
1708,000000	10,824078
1707,000000	10,263099
1706,000000	9,896626
1705,000000	9,861278
1704,000000	9,808433
1703,000000	9,205442
1702,000000	8,080782
1701,000000	7,161556
1700,000000	7,051828
1699,000000	7,523974
1698,000000	7,909421
1697,000000	8,009546
1696,000000	8,278383
1695,000000	9,107580
1694,000000	10,261995
1693,000000	11,149039
1692,000000	11,437239
1691,000000	11,286118
1690,000000	11,035756
1689,000000	10,799543
1688,000000	10,345177
1687,000000	9,398527
1686,000000	8,115982
1685,000000	7,162536
1684,000000	7,161293
1683,000000	8,080858
1682,000000	9,298256
1681,000000	10,249110
1680,000000	10,789767
1679,000000	10,946098
1678,000000	10,664016
1677,000000	10,020379
1676,000000	9,436040
1675,000000	9,337061
1674,000000	9,645030
1673,000000	9,840374
1672,000000	9,580213
1671,000000	9,079585
1670,000000	8,849685
1669,000000	9,194703
1668,000000	9,981691
1667,000000	10,766161
1666,000000	11,102012
1665,000000	10,858950
1664,000000	10,350412
1663,000000	10,083401
1662,000000	10,304304
1661,000000	10,824016
1660,000000	11,277311
1659,000000	11,431731
1658,000000	11,174401
1657,000000	10,346093
1656,000000	8,867207
1655,000000	7,089777
1654,000000	5,829182
1653,000000	5,789803
1652,000000	6,890680
1651,000000	8,254560
1650,000000	8,928578
1649,000000	8,666837
1648,000000	8,019743
1647,000000	7,755536
1646,000000	8,225254
1645,000000	9,207444
1644,000000	10,204824
1643,000000	10,853058
1642,000000	11,084531
1641,000000	11,002083
1640,000000	10,643171
1639,000000	9,928632
1638,000000	8,891984
1637,000000	7,898978
1636,000000	7,500919
1635,000000	7,983042
1634,000000	9,084889
1633,000000	10,210559
1632,000000	10,876555
1631,000000	10,971238
1630,000000	10,697330
1629,000000	10,361833
1628,000000	10,165268
1627,000000	10,079949
1626,000000	9,918796
1625,000000	9,601198
1624,000000	9,332169
1623,000000	9,418206
1622,000000	9,876047
1621,000000	10,303467
1620,000000	10,224625
1619,000000	9,564678
1618,000000	8,753899
1617,000000	8,380087
1616,000000	8,712331
1615,000000	9,518558
1614,000000	10,302666
1613,000000	10,712015
1612,000000	10,740914
1611,000000	10,603077
1610,000000	10,479696
1609,000000	10,429275
1608,000000	10,453055
1607,000000	10,539581
1606,000000	10,639133
1605,000000	10,684633
1604,000000	10,670193
1603,000000	10,662965
1602,000000	10,713436
1601,000000	10,796678
1600,000000	10,861080
1599,000000	10,885615
1598,000000	10,867586
1597,000000	10,804626
1596,000000	10,724559
1595,000000	10,689736
1594,000000	10,730454
1593,000000	10,802682
1592,000000	10,848345
1591,000000	10,868686
1590,000000	10,899399
1589,000000	10,943072
1588,000000	10,972607
1587,000000	10,983200
1586,000000	10,991697
1585,000000	10,994416
1584,000000	10,974710
1583,000000	10,946556
1582,000000	10,931123
1581,000000	10,854805
1580,000000	10,531771
1579,000000	9,827353
1578,000000	8,890787
1577,000000	8,176750
1576,000000	8,136944
1575,000000	8,800004
1574,000000	9,655946
1573,000000	10,044550
1572,000000	9,727673
1571,000000	9,080479
1570,000000	8,702765
1569,000000	8,866830
1568,000000	9,348434
1567,000000	9,753201
1566,000000	9,908226
1565,000000	9,897534
1564,000000	9,756198
1563,000000	9,251353
1562,000000	8,105729
1561,000000	6,474765
1560,000000	5,077309
1559,000000	4,667037
1558,000000	5,343062
1557,000000	6,501882
1556,000000	7,489677
1555,000000	8,150407
1554,000000	8,673669
1553,000000	9,131062
1552,000000	9,400998
1551,000000	9,478368
1550,000000	9,551309
1549,000000	9,705403
1548,000000	9,741324
1547,000000	9,424260
1546,000000	8,782796
1545,000000	8,038598
1544,000000	7,318685
1543,000000	6,583387
1542,000000	5,842415
1541,000000	5,338488
1540,000000	5,441636
1539,000000	6,309624
1538,000000	7,618072
1537,000000	8,680497
1536,000000	8,978213
1535,000000	8,637828
1534,000000	8,295257
1533,000000	8,451333
1532,000000	9,018662
1531,000000	9,529470
1530,000000	9,639109
1529,000000	9,355180
1528,000000	8,898044
1527,000000	8,495323
1526,000000	8,239937
1525,000000	8,014747
1524,000000	7,610376
1523,000000	7,032981
1522,000000	6,624555
1521,000000	6,706424
1520,000000	7,161607
1519,000000	7,564457
1518,000000	7,725276
1517,000000	7,877243
1516,000000	8,266244
1515,000000	8,777379
1514,000000	9,104493
1513,000000	9,129777
1512,000000	8,931338
1511,000000	8,511345
1510,000000	7,747457
1509,000000	6,679212
1508,000000	5,706510
1507,000000	5,384529
1506,000000	5,992971
1505,000000	7,288993
1504,000000	8,658554
1503,000000	9,532763
1502,000000	9,719841
1501,000000	9,392198
1500,000000	8,828326
1499,000000	8,230978
1498,000000	7,771021
1497,000000	7,642191
1496,000000	7,941133
1495,000000	8,491739
1494,000000	8,901892
1493,000000	8,861382
1492,000000	8,403233
1491,000000	7,867357
1490,000000	7,618643
1489,000000	7,789191
1488,000000	8,269196
1487,000000	8,878141
1486,000000	9,484901
1485,000000	9,976439
1484,000000	10,239277
1483,000000	10,265149
1482,000000	10,206760
1481,000000	10,210716
1480,000000	10,216876
1479,000000	10,038968
1478,000000	9,624218
1477,000000	9,099130
1476,000000	8,563128
1475,000000	8,008568
1474,000000	7,519264
1473,000000	7,371931
1472,000000	7,791775
1471,000000	8,654105
1470,000000	9,537534
1469,000000	10,040700
1468,000000	10,011174
1467,000000	9,581176
1466,000000	9,091178
1465,000000	8,909167
1464,000000	9,155613
1463,000000	9,574431
1462,000000	9,719572
1461,000000	9,296177
1460,000000	8,334741
1459,000000	7,170035
1458,000000	6,310209
1457,000000	6,191976
1456,000000	6,864941
1455,000000	7,920273
1454,000000	8,827635
1453,000000	9,342842
1452,000000	9,535665
1451,000000	9,523267
1450,000000	9,362315
1449,000000	9,168689
1448,000000	9,140847
1447,000000	9,370383
1446,000000	9,731387
1445,000000	10,025306
1444,000000	10,173732
1443,000000	10,227842
1442,000000	10,233431
1441,000000	10,128177
1440,000000	9,769663
1439,000000	9,104073
1438,000000	8,352609
1437,000000	7,951034
1436,000000	8,176021
1435,000000	8,840082
1434,000000	9,449910
1433,000000	9,677292
1432,000000	9,582542
1431,000000	9,423670
1430,000000	9,392169
1429,000000	9,530754
1428,000000	9,747974
1427,000000	9,863173
1426,000000	9,760837
1425,000000	9,542857
1424,000000	9,403968
1423,000000	9,318413
1422,000000	9,028143
1421,000000	8,433400
1420,000000	7,844797
1419,000000	7,697654
1418,000000	8,091379
1417,000000	8,748921
1416,000000	9,340098
1415,000000	9,716313
1414,000000	9,878294
1413,000000	9,886653
1412,000000	9,837195
1411,000000	9,815234
1410,000000	9,823101
1409,000000	9,787006
1408,000000	9,645240
1407,000000	9,410614
1406,000000	9,176919
1405,000000	9,075733
1404,000000	9,163997
1403,000000	9,314621
1402,000000	9,294080
1401,000000	9,019813
1400,000000	8,677010
1399,000000	8,488692
1398,000000	8,449469
1397,000000	8,398796
1396,000000	8,307407
1395,000000	8,343526
1394,000000	8,634172
1393,000000	9,083905
1392,000000	9,457730
1391,000000	9,571053
1390,000000	9,392555
1389,000000	9,053999
1388,000000	8,793844
1387,000000	8,802752
1386,000000	9,063707
1385,000000	9,382528
1384,000000	9,590488
1383,000000	9,667436
1382,000000	9,673458
1381,000000	9,645037
1380,000000	9,595416
1379,000000	9,537764
1378,000000	9,449598
1377,000000	9,272312
1376,000000	9,012674
1375,000000	8,805759
1374,000000	8,805097
1373,000000	9,015368
1372,000000	9,278823
1371,000000	9,435226
1370,000000	9,460176
1369,000000	9,444465
1368,000000	9,464700
1367,000000	9,485315
1366,000000	9,394777
1365,000000	9,141901
1364,000000	8,828096
1363,000000	8,643944
1362,000000	8,701344
1361,000000	8,945268
1360,000000	9,226825
1359,000000	9,430013
1358,000000	9,524261
1357,000000	9,536636
1356,000000	9,514258
1355,000000	9,501696
1354,000000	9,517728
1353,000000	9,544669
1352,000000	9,553326
1351,000000	9,538123
1350,000000	9,519432
1349,000000	9,515828
1348,000000	9,526169
1347,000000	9,538932
1346,000000	9,546091
1345,000000	9,538015
1344,000000	9,487502
1343,000000	9,355604
1342,000000	9,134377
1341,000000	8,886313
1340,000000	8,722167
1339,000000	8,718329
1338,000000	8,856314
1337,000000	9,052570
1336,000000	9,232673
1335,000000	9,365293
1334,000000	9,444820
1333,000000	9,474495
1332,000000	9,470880
1331,000000	9,459173
1330,000000	9,452785
1329,000000	9,448011
1328,000000	9,440862
1327,000000	9,434282
1326,000000	9,427787
1325,000000	9,414839
1324,000000	9,391484
1323,000000	9,354851
1322,000000	9,295665
1321,000000	9,210515
1320,000000	9,123563
1319,000000	9,075416
1318,000000	9,081343
1317,000000	9,113968
1316,000000	9,133840
1315,000000	9,128336
1314,000000	9,114936
1313,000000	9,116506
1312,000000	9,140099
1311,000000	9,172465
1310,000000	9,191893
1309,000000	9,188766
1308,000000	9,174380
1307,000000	9,165731
1306,000000	9,164945
1305,000000	9,162046
1304,000000	9,153352
1303,000000	9,144441
1302,000000	9,137244
1301,000000	9,126429
1300,000000	9,109813
1299,000000	9,091383
1298,000000	9,073610
1297,000000	9,056250
1296,000000	9,042257
1295,000000	9,034825
1294,000000	9,028859
1293,000000	9,014895
1292,000000	8,991156
1291,000000	8,963279
1290,000000	8,934457
1289,000000	8,906285
1288,000000	8,886251
1287,000000	8,881919
1286,000000	8,887694
1285,000000	8,888976
1284,000000	8,879228
1283,000000	8,863242
1282,000000	8,844829
1281,000000	8,822823
1280,000000	8,799239
1279,000000	8,779495
1278,000000	8,763006
1277,000000	8,742936
1276,000000	8,715615
1275,000000	8,681498
1274,000000	8,638897
1273,000000	8,587293
1272,000000	8,536029
1271,000000	8,497732
1270,000000	8,472377
1269,000000	8,447770
1268,000000	8,416171
1267,000000	8,380721
1266,000000	8,344921
1265,000000	8,306745
1264,000000	8,264822
1263,000000	8,222415
1262,000000	8,184109
1261,000000	8,155815
1260,000000	8,146320
1259,000000	8,159044
1258,000000	8,183173
1257,000000	8,202249
1256,000000	8,210904
1255,000000	8,214826
1254,000000	8,216451
1253,000000	8,211741
1252,000000	8,200558
1251,000000	8,188488
1250,000000	8,177079
1249,000000	8,162062
1248,000000	8,142219
1247,000000	8,121110
1246,000000	8,099718
1245,000000	8,076210
1244,000000	8,053195
1243,000000	8,035794
1242,000000	8,022245
1241,000000	8,005506
1240,000000	7,984379
1239,000000	7,964144
1238,000000	7,945972
1237,000000	7,925388
1236,000000	7,901623
1235,000000	7,879153
1234,000000	7,858855
1233,000000	7,836703
1232,000000	7,812249
1231,000000	7,789674
1230,000000	7,769102
1229,000000	7,745374
1228,000000	7,716903
1227,000000	7,687931
1226,000000	7,661077
1225,000000	7,634934
1224,000000	7,609609
1223,000000	7,586851
1222,000000	7,564227
1221,000000	7,536961
1220,000000	7,506143
1219,000000	7,477562
1218,000000	7,452179
1217,000000	7,425221
1216,000000	7,394852
1215,000000	7,364130
1214,000000	7,334359
1213,000000	7,304410
1212,000000	7,276668
1211,000000	7,255405
1210,000000	7,238708
1209,000000	7,219832
1208,000000	7,197002
1207,000000	7,174608
1206,000000	7,154446
1205,000000	7,133742
1204,000000	7,112111
1203,000000	7,092413
1202,000000	7,073976
1201,000000	7,052686
1200,000000	7,028726
1199,000000	7,006822
1198,000000	6,988095
1197,000000	6,968769
1196,000000	6,947548
1195,000000	6,927000
1194,000000	6,907145
1193,000000	6,884958
1192,000000	6,860762
1191,000000	6,837986
1190,000000	6,816124
1189,000000	6,791251
1188,000000	6,763977
1187,000000	6,739350
1186,000000	6,717934
1185,000000	6,694183
1184,000000	6,664678
1183,000000	6,631552
1182,000000	6,597367
1181,000000	6,563522
1180,000000	6,533960
1179,000000	6,512792
1178,000000	6,497005
1177,000000	6,478602
1176,000000	6,455067
1175,000000	6,431146
1174,000000	6,409716
1173,000000	6,387969
1172,000000	6,363807
1171,000000	6,338891
1170,000000	6,313638
1169,000000	6,285571
1168,000000	6,254477
1167,000000	6,223426
1166,000000	6,193449
1165,000000	6,162716
1164,000000	6,131705
1163,000000	6,103427
1162,000000	6,077826
1161,000000	6,051717
1160,000000	6,024839
1159,000000	6,000239
1158,000000	5,978155
1157,000000	5,955464
1156,000000	5,931734
1155,000000	5,909801
1154,000000	5,889884
1153,000000	5,869014
1152,000000	5,846897
1151,000000	5,826405
1150,000000	5,807588
1149,000000	5,787184
1148,000000	5,764743
1147,000000	5,743522
1146,000000	5,724561
1145,000000	5,705564
1144,000000	5,686277
1143,000000	5,669283
1142,000000	5,654656
1141,000000	5,639377
1140,000000	5,622637
1139,000000	5,606428
1138,000000	5,590499
1137,000000	5,572265
1136,000000	5,552154
1135,000000	5,533369
1134,000000	5,515883
1133,000000	5,496145
1132,000000	5,473342
1131,000000	5,450296
1130,000000	5,427791
1129,000000	5,403566
1128,000000	5,377559
1127,000000	5,352554
1126,000000	5,328750
1125,000000	5,303201
1124,000000	5,275374
1123,000000	5,248156
1122,000000	5,222569
1121,000000	5,196655
1120,000000	5,170058
1119,000000	5,144693
1118,000000	5,120232
1117,000000	5,094121
1116,000000	5,066522
1115,000000	5,040267
1114,000000	5,015543
1113,000000	4,989800
1112,000000	4,963214
1111,000000	4,938945
1110,000000	4,917490
1109,000000	4,895968
1108,000000	4,873745
1107,000000	4,853414
1106,000000	4,835698
1105,000000	4,818292
1104,000000	4,800523
1103,000000	4,784226
1102,000000	4,769283
1101,000000	4,753195
1100,000000	4,735717
1099,000000	4,719261
1098,000000	4,704171
1097,000000	4,688288
1096,000000	4,671494
1095,000000	4,656000
1094,000000	4,641726
1093,000000	4,626290
1092,000000	4,609781
1091,000000	4,594835
1090,000000	4,581600
1089,000000	4,567577
1088,000000	4,552738
1087,000000	4,539751
1086,000000	4,528686
1085,000000	4,516439
1084,000000	4,502088
1083,000000	4,487951
1082,000000	4,474872
1081,000000	4,461188
1080,000000	4,447167
1079,000000	4,435523
1078,000000	4,426884
1077,000000	4,419112
1076,000000	4,411716
1075,000000	4,406477
1074,000000	4,403115
1073,000000	4,399094
1072,000000	4,394173
1071,000000	4,390691
1070,000000	4,388744
1069,000000	4,385723
1068,000000	4,381176
1067,000000	4,377679
1066,000000	4,376048
1065,000000	4,374193
1064,000000	4,371332
1063,000000	4,369102
1062,000000	4,367820
1061,000000	4,365812
1060,000000	4,362878
1059,000000	4,360132
1058,000000	4,355833
1057,000000	4,345509
1056,000000	4,327316
1055,000000	4,303344
1054,000000	4,276136
1053,000000	4,248133
1052,000000	4,225010
1051,000000	4,214237
1050,000000	4,219359
1049,000000	4,238489
1048,000000	4,268326
1047,000000	4,305730
1046,000000	4,345096
1045,000000	4,379920
1044,000000	4,407853
1043,000000	4,430839
1042,000000	4,449978
1041,000000	4,464505
1040,000000	4,475599
1039,000000	4,486452
1038,000000	4,497752
1037,000000	4,507211
1036,000000	4,514416
1035,000000	4,521706
1034,000000	4,529880
1033,000000	4,537268
1032,000000	4,543771
1031,000000	4,551481
1030,000000	4,560665
1029,000000	4,569205
1028,000000	4,576838
1027,000000	4,585697
1026,000000	4,595996
1025,000000	4,605289
1024,000000	4,612942
1023,000000	4,621259
1022,000000	4,631250
1021,000000	4,641248
1020,000000	4,650588
1019,000000	4,660967
1018,000000	4,673060
1017,000000	4,685582
1016,000000	4,698371
1015,000000	4,712918
1014,000000	4,729064
1013,000000	4,744738
1012,000000	4,759621
1011,000000	4,775467
1010,000000	4,792233
1009,000000	4,807492
1008,000000	4,820384
1007,000000	4,832511
1006,000000	4,844469
1005,000000	4,855007
1004,000000	4,864122
1003,000000	4,873321
1002,000000	4,882271
1001,000000	4,888777
1000,000000	4,892758
999,000000	4,896441
998,000000	4,900321
997,000000	4,902522
996,000000	4,902688
995,000000	4,902770
994,000000	4,903111
993,000000	4,901800
992,000000	4,898449
991,000000	4,894985
990,000000	4,891781
989,000000	4,886806
988,000000	4,879572
987,000000	4,872377
986,000000	4,866511
985,000000	4,860678
984,000000	4,854062
983,000000	4,847568
982,000000	4,841125
981,000000	4,833020
980,000000	4,823086
979,000000	4,813286
978,000000	4,804347
977,000000	4,794741
976,000000	4,783837
975,000000	4,772926
974,000000	4,762427
973,000000	4,751162
972,000000	4,739134
971,000000	4,727920
970,000000	4,717631
969,000000	4,706581
968,000000	4,694505
967,000000	4,683067
966,000000	4,672492
965,000000	4,661079
964,000000	4,648481
963,000000	4,636286
962,000000	4,624564
961,000000	4,611343
960,000000	4,596322
959,000000	4,581812
958,000000	4,569001
957,000000	4,556386
956,000000	4,543022
955,000000	4,530137
954,000000	4,518556
953,000000	4,507347
952,000000	4,496079
951,000000	4,485549
950,000000	4,475430
949,000000	4,463970
948,000000	4,451042
947,000000	4,438701
946,000000	4,427917
945,000000	4,417398
944,000000	4,406321
943,000000	4,395502
942,000000	4,385042
941,000000	4,373687
940,000000	4,361305
939,000000	4,349458
938,000000	4,338657
937,000000	4,327663
936,000000	4,316004
935,000000	4,304651
934,000000	4,293677
933,000000	4,282024
932,000000	4,270068
931,000000	4,259516
930,000000	4,250178
929,000000	4,239707
928,000000	4,227358
927,000000	4,215037
926,000000	4,203984
925,000000	4,193125
924,000000	4,181673
923,000000	4,170445
922,000000	4,159675
921,000000	4,148168
920,000000	4,135635
919,000000	4,123383
918,000000	4,111677
917,000000	4,098925
916,000000	4,084279
915,000000	4,068774
914,000000	4,053062
913,000000	4,036483
912,000000	4,019179
911,000000	4,002781
910,000000	3,988075
909,000000	3,974222
908,000000	3,960959
907,000000	3,949241
906,000000	3,938924
905,000000	3,928161
904,000000	3,915982
903,000000	3,903377
902,000000	3,891167
901,000000	3,878857
900,000000	3,866423
899,000000	3,855034
898,000000	3,845240
897,000000	3,836167
896,000000	3,827088
895,000000	3,817994
894,000000	3,808298
893,000000	3,796993
892,000000	3,784443
891,000000	3,772080
890,000000	3,759984
889,000000	3,746849
888,000000	3,732311
887,000000	3,717182
886,000000	3,701226
885,000000	3,683093
884,000000	3,662855
883,000000	3,642283
882,000000	3,622198
881,000000	3,601907
880,000000	3,581743
879,000000	3,563803
878,000000	3,549538
877,000000	3,538675
876,000000	3,530958
875,000000	3,526934
874,000000	3,526367
873,000000	3,527878
872,000000	3,530831
871,000000	3,535480
870,000000	3,541127
869,000000	3,545999
868,000000	3,549471
867,000000	3,552445
866,000000	3,555136
865,000000	3,556510
864,000000	3,556217
863,000000	3,555124
862,000000	3,553346
861,000000	3,549893
860,000000	3,544611
859,000000	3,538688
858,000000	3,532764
857,000000	3,526341
856,000000	3,519497
855,000000	3,513280
854,000000	3,508007
853,000000	3,502852
852,000000	3,497471
851,000000	3,492324
850,000000	3,487294
849,000000	3,481748
848,000000	3,476154
847,000000	3,471721
846,000000	3,468280
845,000000	3,464373
844,000000	3,459569
843,000000	3,454730
842,000000	3,449856
841,000000	3,443788
840,000000	3,436299
839,000000	3,428354
838,000000	3,419904
837,000000	3,409485
836,000000	3,396511
835,000000	3,381981
834,000000	3,366079
833,000000	3,347177
832,000000	3,323812
831,000000	3,296266
830,000000	3,265687
829,000000	3,233360
828,000000	3,201591
827,000000	3,173705
826,000000	3,152500
825,000000	3,139570
824,000000	3,136362
823,000000	3,143660
822,000000	3,159662
821,000000	3,180026
820,000000	3,200572
819,000000	3,219094
818,000000	3,234332
817,000000	3,245253
816,000000	3,251868
815,000000	3,255421
814,000000	3,256875
813,000000	3,256288
812,000000	3,253810
811,000000	3,250028
810,000000	3,245095
809,000000	3,238672
808,000000	3,231150
807,000000	3,223630
806,000000	3,216464
805,000000	3,209098
804,000000	3,201482
803,000000	3,194305
802,000000	3,187610
801,000000	3,180708
800,000000	3,173898
799,000000	3,168881
798,000000	3,166857
797,000000	3,167333
796,000000	3,169371
795,000000	3,172773
794,000000	3,177512
793,000000	3,183010
792,000000	3,188669
791,000000	3,194402
790,000000	3,200125
789,000000	3,205450
788,000000	3,210211
787,000000	3,214632
786,000000	3,218689
785,000000	3,221962
784,000000	3,224298
783,000000	3,226012
782,000000	3,227293
781,000000	3,228056
780,000000	3,228476
779,000000	3,228969
778,000000	3,229558
777,000000	3,229908
776,000000	3,229985
775,000000	3,230022
774,000000	3,229805
773,000000	3,228719
772,000000	3,226615
771,000000	3,223957
770,000000	3,221058
769,000000	3,217852
768,000000	3,214532
767,000000	3,211678
766,000000	3,209419
765,000000	3,207016
764,000000	3,203633
763,000000	3,199233
762,000000	3,194463
761,000000	3,189918
760,000000	3,185720
759,000000	3,181640
758,000000	3,177389
757,000000	3,172855
756,000000	3,168177
755,000000	3,163626
754,000000	3,159323
753,000000	3,155050
752,000000	3,150432
751,000000	3,145374
750,000000	3,140154
749,000000	3,134902
748,000000	3,129196
747,000000	3,122600
746,000000	3,115389
745,000000	3,108096
744,000000	3,100556
743,000000	3,092369
742,000000	3,084348
741,000000	3,078192
740,000000	3,074238
739,000000	3,070718
738,000000	3,065890
737,000000	3,059842
736,000000	3,053518
735,000000	3,047237
734,000000	3,040918
733,000000	3,034567
732,000000	3,027698
731,000000	3,019610
730,000000	3,010910
729,000000	3,003230
728,000000	2,996871
727,000000	2,990683
726,000000	2,984455
725,000000	2,977676
724,000000	2,964921
723,000000	2,938084
722,000000	2,898534
721,000000	2,863208
720,000000	2,851704
719,000000	2,866624
718,000000	2,891381
717,000000	2,907517
716,000000	2,909396
715,000000	2,902365
714,000000	2,892665
713,000000	2,882812
712,000000	2,873122
711,000000	2,863376
710,000000	2,852961
709,000000	2,841135
708,000000	2,827412
707,000000	2,811777
706,000000	2,795106
705,000000	2,778901
704,000000	2,763587
703,000000	2,747692
702,000000	2,729590
701,000000	2,709036
700,000000	2,686162
699,000000	2,660627
698,000000	2,633055
697,000000	2,605354
696,000000	2,578108
695,000000	2,549723
694,000000	2,519332
693,000000	2,487545
692,000000	2,453199
691,000000	2,413688
690,000000	2,371256
689,000000	2,334306
688,000000	2,308761
687,000000	2,292062
686,000000	2,278944
685,000000	2,268235
684,000000	2,259772
683,000000	2,250531
682,000000	2,239149
681,000000	2,229414
680,000000	2,223898
679,000000	2,219968
678,000000	2,216631
677,000000	2,217994
676,000000	2,225029
675,000000	2,233281
674,000000	2,239456
673,000000	2,229344
672,000000	2,151832
671,000000	1,944278
670,000000	1,628238
669,000000	1,360262
668,000000	1,327516
667,000000	1,565847
666,000000	1,914524
665,000000	2,172448
664,000000	2,266387
663,000000	2,256945
662,000000	2,223329
661,000000	2,192303
660,000000	2,162354
659,000000	2,137518
658,000000	2,121612
657,000000	2,108195
656,000000	2,092968
655,000000	2,081320
654,000000	2,076140
653,000000	2,070593
652,000000	2,059375
651,000000	2,046465
650,000000	2,037617
649,000000	2,034579
648,000000	2,039077
647,000000	2,052637
646,000000	2,070018
645,000000	2,082028
644,000000	2,086909
643,000000	2,090933
642,000000	2,096577
641,000000	2,099644
640,000000	2,098688
639,000000	2,097780
638,000000	2,097702
637,000000	2,094052
636,000000	2,086623
635,000000	2,081776
634,000000	2,082410
633,000000	2,083467
632,000000	2,080774
631,000000	2,076271
630,000000	2,071434
629,000000	2,062874
628,000000	2,048857
627,000000	2,033727
626,000000	2,022033
625,000000	2,013362
624,000000	2,006057
623,000000	2,000060
622,000000	1,992341
621,000000	1,975320
620,000000	1,945184
619,000000	1,909233
618,000000	1,880749
617,000000	1,868155
616,000000	1,870033
615,000000	1,877729
614,000000	1,881329
613,000000	1,875864
612,000000	1,863715
611,000000	1,850018
610,000000	1,836132
609,000000	1,820102
608,000000	1,802109
607,000000	1,785178
606,000000	1,770866
605,000000	1,758127
604,000000	1,746452
603,000000	1,736181
602,000000	1,726218
601,000000	1,715317
600,000000	1,705281
599,000000	1,698566
598,000000	1,693377
597,000000	1,685184
596,000000	1,672534
595,000000	1,657085
594,000000	1,639370
593,000000	1,619976
592,000000	1,603748
591,000000	1,596300
590,000000	1,595583
589,000000	1,592909
588,000000	1,583048
587,000000	1,568698
586,000000	1,554139
585,000000	1,539836
584,000000	1,524685
583,000000	1,508897
582,000000	1,493125
581,000000	1,477961
580,000000	1,464531
579,000000	1,452472
578,000000	1,438456
577,000000	1,421061
576,000000	1,405529
575,000000	1,397873
574,000000	1,395445
573,000000	1,389225
572,000000	1,375495
571,000000	1,358708
570,000000	1,343047
569,000000	1,328355
568,000000	1,315071
567,000000	1,305944
566,000000	1,300354
565,000000	1,293325
564,000000	1,282527
563,000000	1,271113
562,000000	1,261378
561,000000	1,251291
560,000000	1,239387
559,000000	1,227692
558,000000	1,217314
557,000000	1,206223
556,000000	1,193932
555,000000	1,183299
554,000000	1,175164
553,000000	1,165881
552,000000	1,153141
551,000000	1,139516
550,000000	1,127662
549,000000	1,116338
548,000000	1,104270
547,000000	1,093809
546,000000	1,087430
545,000000	1,083878
544,000000	1,080437
543,000000	1,076113
542,000000	1,070319
541,000000	1,061833
540,000000	1,051208
539,000000	1,041223
538,000000	1,032986
537,000000	1,024835
536,000000	1,016258
535,000000	1,009251
534,000000	1,004082
533,000000	0,997978
532,000000	0,989766
531,000000	0,981330
530,000000	0,972179
529,000000	0,957370
528,000000	0,934970
527,000000	0,911844
526,000000	0,897957
525,000000	0,896156
524,000000	0,900329
523,000000	0,901664
522,000000	0,894270
521,000000	0,877486
520,000000	0,855938
519,000000	0,836835
518,000000	0,825341
517,000000	0,822487
516,000000	0,826563
515,000000	0,834067
514,000000	0,839676
513,000000	0,839236
512,000000	0,833610
511,000000	0,826606
510,000000	0,818843
509,000000	0,808171
508,000000	0,796098
507,000000	0,788035
506,000000	0,784637
505,000000	0,778903
504,000000	0,765970
503,000000	0,751329
502,000000	0,744685
501,000000	0,748019
500,000000	0,754464
499,000000	0,756997
498,000000	0,753972
497,000000	0,747202
496,000000	0,738393
495,000000	0,728215
494,000000	0,716870
493,000000	0,705070
492,000000	0,694893
491,000000	0,688322
490,000000	0,684338
489,000000	0,678975
488,000000	0,669188
487,000000	0,655501
486,000000	0,640436
485,000000	0,626493
484,000000	0,616085
483,000000	0,610602
482,000000	0,608021
481,000000	0,603691
480,000000	0,595106
479,000000	0,584301
478,000000	0,574282
477,000000	0,564565
476,000000	0,551688
475,000000	0,533334
474,000000	0,511637
473,000000	0,493344
472,000000	0,485428
471,000000	0,488375
470,000000	0,494494
469,000000	0,495491
468,000000	0,491352
467,000000	0,488026
466,000000	0,487645
465,000000	0,486133
464,000000	0,480819
463,000000	0,474392
462,000000	0,468467
461,000000	0,458619
460,000000	0,440752
459,000000	0,419982
458,000000	0,408079
457,000000	0,411709
456,000000	0,425895
455,000000	0,439228
454,000000	0,444396
453,000000	0,443299
452,000000	0,442478
451,000000	0,444576
450,000000	0,445610
449,000000	0,441310
448,000000	0,433345
447,000000	0,426447
446,000000	0,421467
445,000000	0,415353
444,000000	0,407583
443,000000	0,401978
442,000000	0,401299
441,000000	0,403586
440,000000	0,404761
439,000000	0,402176
438,000000	0,395185
437,000000	0,385512
436,000000	0,377405
435,000000	0,374148
434,000000	0,373919
433,000000	0,372077
432,000000	0,367348
431,000000	0,362322
430,000000	0,357937
429,000000	0,351813
428,000000	0,342559
427,000000	0,331595
426,000000	0,320178
425,000000	0,308357
424,000000	0,296924
423,000000	0,285605
422,000000	0,269661
421,000000	0,244911
420,000000	0,217961
419,000000	0,204278
418,000000	0,212084
417,000000	0,232731
416,000000	0,250487
415,000000	0,257625
414,000000	0,256331
413,000000	0,250871
412,000000	0,243629
411,000000	0,236218
410,000000	0,229399
409,000000	0,222263
408,000000	0,214321
407,000000	0,206950
406,000000	0,200875
405,000000	0,194272
404,000000	0,185389
403,000000	0,174738
402,000000	0,162655
401,000000	0,147701
400,000000	0,130203
399,000000	0,114753
398,000000	0,105995
397,000000	0,103757
396,000000	0,104789
395,000000	0,107113
394,000000	0,110049
393,000000	0,112071
392,000000	0,111699
391,000000	0,109323
390,000000	0,105977
389,000000	0,101351
388,000000	0,094812
387,000000	0,087123
386,000000	0,079679
385,000000	0,073442
384,000000	0,069625
383,000000	0,069197
382,000000	0,070564
381,000000	0,070214
380,000000	0,066548
379,000000	0,060899
378,000000	0,054346
377,000000	0,046670
376,000000	0,039366
375,000000	0,035769
374,000000	0,036278
373,000000	0,036935
372,000000	0,034739
371,000000	0,031433
370,000000	0,029772
369,000000	0,029374
368,000000	0,028434
367,000000	0,026836
366,000000	0,025185
365,000000	0,023019
364,000000	0,020680
363,000000	0,020101
362,000000	0,021224
361,000000	0,021225
360,000000	0,018451
359,000000	0,014724
358,000000	0,012315
357,000000	0,010961
356,000000	0,009646
355,000000	0,008614
354,000000	0,007979
353,000000	0,006289
352,000000	0,003099
351,000000	0,002445
350,000000	0,004577
349,000000	0,006344
348,000000	0,006129
347,000000	0,004826
346,000000	0,004493
345,000000	0,003682
344,000000	0,001544
343,000000	0,000526
342,000000	0,001391
341,000000	0,000852
340,000000	0,002293
339,000000	0,003014
338,000000	0,001233
337,000000	0,001079
336,000000	0,001733
335,000000	0,002475
334,000000	0,003117
333,000000	0,002992
332,000000	0,002894
331,000000	0,002131
330,000000	0,002767
329,000000	0,004988
328,000000	0,005580
327,000000	0,005240
326,000000	0,003892
325,000000	0,001931
324,000000	0,002387
323,000000	0,003215
322,000000	0,002649
321,000000	0,002159
320,000000	0,004205
319,000000	0,006281
318,000000	0,006471
317,000000	0,005169
316,000000	0,004233
315,000000	0,003920
314,000000	0,004058
313,000000	0,004689
312,000000	0,003177
311,000000	0,005319
310,000000	0,007531
309,000000	0,006435
308,000000	0,005733
307,000000	0,006452
306,000000	0,009449
305,000000	0,012071
304,000000	0,012204
303,000000	0,011536
302,000000	0,009414
301,000000	0,008723
300,000000	0,009204
299,000000	0,009015
298,000000	0,011642
297,000000	0,012909
296,000000	0,013480
295,000000	0,014056
294,000000	0,012393
293,000000	0,011641
292,000000	0,009542
291,000000	0,007488
290,000000	0,010386
289,000000	0,011963
288,000000	0,012034
287,000000	0,010776
286,000000	0,009929
285,000000	0,011081
284,000000	0,011238
283,000000	0,010856
282,000000	0,010268
281,000000	0,010103
280,000000	0,009659
279,000000	0,010291
278,000000	0,012687
277,000000	0,013371
276,000000	0,013194
275,000000	0,010653
274,000000	0,006777
273,000000	0,009211
272,000000	0,011883
271,000000	0,012897
270,000000	0,010119
269,000000	0,006578
268,000000	0,010157
267,000000	0,010847
266,000000	0,007770
265,000000	0,007242
264,000000	0,010728
263,000000	0,009992
262,000000	0,004486
261,000000	0,008110
260,000000	0,009225
259,000000	0,007720
258,000000	0,009698
257,000000	0,009886
256,000000	0,006905
255,000000	0,003492
254,000000	0,007938
253,000000	0,011489
252,000000	0,010976
251,000000	0,008993
250,000000	0,007140
249,000000	0,008031
248,000000	0,009703
247,000000	0,011223
246,000000	0,011825
245,000000	0,010262
244,000000	0,009980
243,000000	0,008926
242,000000	0,004838
241,000000	0,006360
240,000000	0,009775
239,000000	0,009176
238,000000	0,005198
237,000000	0,005949
236,000000	0,008085
235,000000	0,007530
234,000000	0,007134
233,000000	0,006174
232,000000	0,004143
231,000000	0,004077
230,000000	0,007054
229,000000	0,008422
228,000000	0,011008
227,000000	0,014004
226,000000	0,012762
225,000000	0,010306
224,000000	0,009523
223,000000	0,011146
222,000000	0,014776
221,000000	0,017873
220,000000	0,019209
219,000000	0,015408
218,000000	0,011778
217,000000	0,015205
216,000000	0,016576
215,000000	0,016045
214,000000	0,013410
213,000000	0,010930
212,000000	0,010401
211,000000	0,007275
210,000000	0,008527
209,000000	0,010063
208,000000	0,008016
207,000000	0,005591
206,000000	0,003600
205,000000	0,005323
204,000000	0,006822
203,000000	0,010690
202,000000	0,012221
201,000000	0,012332
200,000000	0,014447
