PE IR       SUBTECH     SPECTRUM    ASCII       PEDS        4.00        
   -1
Silicone reflectivity spectrum.ASC
25/04/22
10:34:18.00
25/04/22
10:34:18.00
Praktikum
Sample 026 By Praktikum date Dienstag, April 22 2025
200,000000
#HDR
-1
-1
#GR
cm-1
EGY
1.0
0.0
4000,000000
-1,000000
3801
8
1,909501
0,000168
#DATA
4000,000000	0,708462
3999,000000	0,709386
3998,000000	0,709825
3997,000000	0,709483
3996,000000	0,708362
3995,000000	0,706801
3994,000000	0,705277
3993,000000	0,704200
3992,000000	0,703897
3991,000000	0,704581
3990,000000	0,706170
3989,000000	0,708186
3988,000000	0,709932
3987,000000	0,710910
3986,000000	0,711127
3985,000000	0,711019
3984,000000	0,711075
3983,000000	0,711541
3982,000000	0,712379
3981,000000	0,713341
3980,000000	0,714085
3979,000000	0,714297
3978,000000	0,713844
3977,000000	0,712927
3976,000000	0,712043
3975,000000	0,711701
3974,000000	0,712081
3973,000000	0,712963
3972,000000	0,714006
3971,000000	0,715108
3970,000000	0,716447
3969,000000	0,718149
3968,000000	0,719912
3967,000000	0,721010
3966,000000	0,720750
3965,000000	0,719042
3964,000000	0,716617
3963,000000	0,714681
3962,000000	0,714193
3961,000000	0,715284
3960,000000	0,717227
3959,000000	0,718970
3958,000000	0,719820
3957,000000	0,719776
3956,000000	0,719311
3955,000000	0,718809
3954,000000	0,718037
3953,000000	0,716153
3952,000000	0,712438
3951,000000	0,707260
3950,000000	0,702293
3949,000000	0,699424
3948,000000	0,699125
3947,000000	0,699936
3946,000000	0,699903
3945,000000	0,698615
3944,000000	0,697718
3943,000000	0,699294
3942,000000	0,703858
3941,000000	0,710185
3940,000000	0,716759
3939,000000	0,722660
3938,000000	0,726868
3937,000000	0,727472
3936,000000	0,722702
3935,000000	0,713099
3934,000000	0,702169
3933,000000	0,694418
3932,000000	0,692388
3931,000000	0,695408
3930,000000	0,700549
3929,000000	0,704482
3928,000000	0,705214
3927,000000	0,703007
3926,000000	0,699986
3925,000000	0,698444
3924,000000	0,698850
3923,000000	0,699438
3922,000000	0,697822
3921,000000	0,693119
3920,000000	0,686837
3919,000000	0,682052
3918,000000	0,681823
3917,000000	0,687594
3916,000000	0,698420
3915,000000	0,711542
3914,000000	0,723958
3913,000000	0,733991
3912,000000	0,741254
3911,000000	0,745267
3910,000000	0,744234
3909,000000	0,735453
3908,000000	0,717234
3907,000000	0,690844
3906,000000	0,660866
3905,000000	0,633276
3904,000000	0,612513
3903,000000	0,600045
3902,000000	0,595513
3901,000000	0,598871
3900,000000	0,610875
3899,000000	0,630969
3898,000000	0,655325
3897,000000	0,677381
3896,000000	0,690833
3895,000000	0,692979
3894,000000	0,686404
3893,000000	0,678012
3892,000000	0,674826
3891,000000	0,678418
3890,000000	0,682827
3889,000000	0,679858
3888,000000	0,667351
3887,000000	0,652095
3886,000000	0,643223
3885,000000	0,643170
3884,000000	0,646258
3883,000000	0,646262
3882,000000	0,644074
3881,000000	0,646707
3880,000000	0,658864
3879,000000	0,676678
3878,000000	0,690435
3877,000000	0,693234
3876,000000	0,686126
3875,000000	0,674429
3874,000000	0,660839
3873,000000	0,644284
3872,000000	0,625571
3871,000000	0,610943
3870,000000	0,607042
3869,000000	0,613195
3868,000000	0,621416
3867,000000	0,624676
3866,000000	0,623627
3865,000000	0,624509
3864,000000	0,632223
3863,000000	0,646848
3862,000000	0,665033
3861,000000	0,682212
3860,000000	0,692799
3859,000000	0,690234
3858,000000	0,669074
3857,000000	0,628727
3856,000000	0,576774
3855,000000	0,528519
3854,000000	0,500903
3853,000000	0,503594
3852,000000	0,533997
3851,000000	0,580039
3850,000000	0,627998
3849,000000	0,668222
3848,000000	0,695995
3847,000000	0,710178
3846,000000	0,712311
3845,000000	0,705451
3844,000000	0,692184
3843,000000	0,673429
3842,000000	0,649615
3841,000000	0,623109
3840,000000	0,599048
3839,000000	0,583359
3838,000000	0,579693
3837,000000	0,587394
3836,000000	0,602113
3835,000000	0,618747
3834,000000	0,634622
3833,000000	0,650194
3832,000000	0,666755
3831,000000	0,683602
3830,000000	0,697780
3829,000000	0,706951
3828,000000	0,711633
3827,000000	0,713440
3826,000000	0,710884
3825,000000	0,698818
3824,000000	0,674379
3823,000000	0,643487
3822,000000	0,618632
3821,000000	0,608377
3820,000000	0,609732
3819,000000	0,613156
3818,000000	0,614313
3817,000000	0,618942
3816,000000	0,635523
3815,000000	0,665283
3814,000000	0,700711
3813,000000	0,731553
3812,000000	0,750284
3811,000000	0,753207
3810,000000	0,741018
3809,000000	0,720211
3808,000000	0,701126
3807,000000	0,690388
3806,000000	0,684455
3805,000000	0,673374
3804,000000	0,652532
3803,000000	0,629632
3802,000000	0,618118
3801,000000	0,624135
3800,000000	0,641705
3799,000000	0,660471
3798,000000	0,676241
3797,000000	0,692398
3796,000000	0,713269
3795,000000	0,738264
3794,000000	0,762702
3793,000000	0,782223
3792,000000	0,795399
3791,000000	0,803049
3790,000000	0,806274
3789,000000	0,805551
3788,000000	0,801320
3787,000000	0,795214
3786,000000	0,789788
3785,000000	0,786430
3784,000000	0,783433
3783,000000	0,777371
3782,000000	0,767269
3781,000000	0,757035
3780,000000	0,752939
3779,000000	0,758299
3778,000000	0,770958
3777,000000	0,785522
3776,000000	0,797015
3775,000000	0,802039
3774,000000	0,798021
3773,000000	0,784046
3772,000000	0,763461
3771,000000	0,743761
3770,000000	0,731612
3769,000000	0,728013
3768,000000	0,729503
3767,000000	0,733745
3766,000000	0,741508
3765,000000	0,752572
3764,000000	0,761942
3763,000000	0,762940
3762,000000	0,753690
3761,000000	0,739285
3760,000000	0,727413
3759,000000	0,722422
3758,000000	0,722576
3757,000000	0,721046
3756,000000	0,709473
3755,000000	0,682971
3754,000000	0,643850
3753,000000	0,601263
3752,000000	0,567033
3751,000000	0,549852
3750,000000	0,550175
3749,000000	0,558533
3748,000000	0,560950
3747,000000	0,550407
3746,000000	0,534658
3745,000000	0,530746
3744,000000	0,549521
3743,000000	0,586028
3742,000000	0,624157
3741,000000	0,648577
3740,000000	0,652244
3739,000000	0,636586
3738,000000	0,609179
3737,000000	0,580832
3736,000000	0,561144
3735,000000	0,554722
3734,000000	0,561676
3733,000000	0,580690
3732,000000	0,609250
3731,000000	0,641274
3730,000000	0,667707
3729,000000	0,682229
3728,000000	0,685747
3727,000000	0,684164
3726,000000	0,682486
3725,000000	0,682172
3724,000000	0,683393
3723,000000	0,687502
3722,000000	0,696239
3721,000000	0,709698
3720,000000	0,726058
3719,000000	0,742690
3718,000000	0,756202
3717,000000	0,761514
3716,000000	0,752928
3715,000000	0,728344
3714,000000	0,692978
3713,000000	0,658159
3712,000000	0,635551
3711,000000	0,631265
3710,000000	0,644481
3709,000000	0,669587
3708,000000	0,698829
3707,000000	0,724207
3706,000000	0,739076
3705,000000	0,740845
3704,000000	0,732894
3703,000000	0,723404
3702,000000	0,720634
3701,000000	0,727512
3700,000000	0,740513
3699,000000	0,753545
3698,000000	0,762605
3697,000000	0,766449
3696,000000	0,763931
3695,000000	0,752525
3694,000000	0,730184
3693,000000	0,697845
3692,000000	0,660241
3691,000000	0,625610
3690,000000	0,604081
3689,000000	0,603851
3688,000000	0,625962
3687,000000	0,662670
3686,000000	0,702036
3685,000000	0,734318
3684,000000	0,754619
3683,000000	0,761683
3682,000000	0,756285
3681,000000	0,739656
3680,000000	0,711724
3679,000000	0,671686
3678,000000	0,623434
3677,000000	0,579627
3676,000000	0,555936
3675,000000	0,557393
3674,000000	0,572385
3673,000000	0,583435
3672,000000	0,583820
3671,000000	0,582604
3670,000000	0,593701
3669,000000	0,622418
3668,000000	0,662631
3667,000000	0,703518
3666,000000	0,736727
3665,000000	0,758977
3664,000000	0,771074
3663,000000	0,775890
3662,000000	0,775519
3661,000000	0,769057
3660,000000	0,753860
3659,000000	0,730257
3658,000000	0,705051
3657,000000	0,688021
3656,000000	0,682861
3655,000000	0,681623
3654,000000	0,669610
3653,000000	0,637870
3652,000000	0,591147
3651,000000	0,544912
3650,000000	0,515524
3649,000000	0,512183
3648,000000	0,535033
3647,000000	0,576742
3646,000000	0,625414
3645,000000	0,669197
3644,000000	0,701339
3643,000000	0,721541
3642,000000	0,733006
3641,000000	0,738659
3640,000000	0,740055
3639,000000	0,738134
3638,000000	0,733342
3637,000000	0,725713
3636,000000	0,715747
3635,000000	0,704116
3634,000000	0,688834
3633,000000	0,664242
3632,000000	0,626529
3631,000000	0,582163
3630,000000	0,548148
3629,000000	0,540916
3628,000000	0,563650
3627,000000	0,604608
3626,000000	0,646251
3625,000000	0,675228
3624,000000	0,685473
3623,000000	0,677107
3622,000000	0,655521
3621,000000	0,630599
3620,000000	0,613205
3619,000000	0,609616
3618,000000	0,617882
3617,000000	0,629971
3616,000000	0,638298
3615,000000	0,640909
3614,000000	0,640652
3613,000000	0,640112
3612,000000	0,638568
3611,000000	0,634572
3610,000000	0,630413
3609,000000	0,632060
3608,000000	0,643871
3607,000000	0,664101
3606,000000	0,685814
3605,000000	0,701856
3604,000000	0,708978
3603,000000	0,708511
3602,000000	0,704303
3601,000000	0,699871
3600,000000	0,696485
3599,000000	0,693431
3598,000000	0,689843
3597,000000	0,686271
3596,000000	0,684694
3595,000000	0,687105
3594,000000	0,693397
3593,000000	0,699697
3592,000000	0,699273
3591,000000	0,686995
3590,000000	0,664850
3589,000000	0,642737
3588,000000	0,632552
3587,000000	0,640252
3586,000000	0,662753
3585,000000	0,691210
3584,000000	0,716820
3583,000000	0,734780
3582,000000	0,744935
3581,000000	0,749896
3580,000000	0,752512
3579,000000	0,754371
3578,000000	0,755956
3577,000000	0,757506
3576,000000	0,759443
3575,000000	0,761880
3574,000000	0,763733
3573,000000	0,761979
3572,000000	0,752062
3571,000000	0,730590
3570,000000	0,699435
3569,000000	0,667396
3568,000000	0,646238
3567,000000	0,643577
3566,000000	0,658341
3565,000000	0,682566
3564,000000	0,707058
3563,000000	0,726246
3562,000000	0,739241
3561,000000	0,748048
3560,000000	0,755072
3559,000000	0,761483
3558,000000	0,766793
3557,000000	0,769341
3556,000000	0,767711
3555,000000	0,762411
3554,000000	0,756373
3553,000000	0,753121
3552,000000	0,753629
3551,000000	0,755011
3550,000000	0,752947
3549,000000	0,745876
3548,000000	0,736737
3547,000000	0,730681
3546,000000	0,731172
3545,000000	0,738128
3544,000000	0,749025
3543,000000	0,761021
3542,000000	0,771979
3541,000000	0,780264
3540,000000	0,784646
3539,000000	0,785052
3538,000000	0,783212
3537,000000	0,781795
3536,000000	0,782359
3535,000000	0,784143
3534,000000	0,784881
3533,000000	0,782703
3532,000000	0,777320
3531,000000	0,770005
3530,000000	0,762877
3529,000000	0,757868
3528,000000	0,755601
3527,000000	0,755120
3526,000000	0,755118
3525,000000	0,755550
3524,000000	0,757757
3523,000000	0,762873
3522,000000	0,770416
3521,000000	0,778497
3520,000000	0,785158
3519,000000	0,789406
3518,000000	0,791424
3517,000000	0,792203
3516,000000	0,792763
3515,000000	0,793262
3514,000000	0,792720
3513,000000	0,789928
3512,000000	0,784918
3511,000000	0,779585
3510,000000	0,776514
3509,000000	0,776899
3508,000000	0,779328
3507,000000	0,780750
3506,000000	0,778936
3505,000000	0,774389
3504,000000	0,770089
3503,000000	0,769301
3502,000000	0,773245
3501,000000	0,780300
3500,000000	0,787304
3499,000000	0,791817
3498,000000	0,793602
3497,000000	0,794160
3496,000000	0,794979
3495,000000	0,796363
3494,000000	0,797716
3493,000000	0,798447
3492,000000	0,798349
3491,000000	0,797494
3490,000000	0,796257
3489,000000	0,795329
3488,000000	0,795198
3487,000000	0,795543
3486,000000	0,795432
3485,000000	0,794221
3484,000000	0,792118
3483,000000	0,790001
3482,000000	0,788974
3481,000000	0,789987
3480,000000	0,793248
3479,000000	0,797696
3478,000000	0,801440
3477,000000	0,803114
3476,000000	0,802838
3475,000000	0,801834
3474,000000	0,801352
3473,000000	0,802022
3472,000000	0,803727
3471,000000	0,805619
3470,000000	0,806460
3469,000000	0,805512
3468,000000	0,803307
3467,000000	0,801276
3466,000000	0,800520
3465,000000	0,801047
3464,000000	0,802179
3463,000000	0,803424
3462,000000	0,804785
3461,000000	0,806405
3460,000000	0,808213
3459,000000	0,809967
3458,000000	0,811511
3457,000000	0,812879
3456,000000	0,814158
3455,000000	0,815340
3454,000000	0,816257
3453,000000	0,816461
3452,000000	0,815132
3451,000000	0,811500
3450,000000	0,805860
3449,000000	0,800173
3448,000000	0,797080
3447,000000	0,797822
3446,000000	0,801180
3445,000000	0,804753
3444,000000	0,807113
3443,000000	0,808557
3442,000000	0,810080
3441,000000	0,812192
3440,000000	0,814801
3439,000000	0,817596
3438,000000	0,820124
3437,000000	0,821825
3436,000000	0,822429
3435,000000	0,822320
3434,000000	0,822229
3433,000000	0,822577
3432,000000	0,823280
3431,000000	0,824137
3430,000000	0,825129
3429,000000	0,826275
3428,000000	0,827364
3427,000000	0,827968
3426,000000	0,827706
3425,000000	0,826543
3424,000000	0,824910
3423,000000	0,823513
3422,000000	0,822958
3421,000000	0,823518
3420,000000	0,825198
3419,000000	0,827813
3418,000000	0,830836
3417,000000	0,833429
3416,000000	0,834957
3415,000000	0,835543
3414,000000	0,835880
3413,000000	0,836445
3412,000000	0,837107
3411,000000	0,837561
3410,000000	0,837853
3409,000000	0,838288
3408,000000	0,839002
3407,000000	0,839836
3406,000000	0,840592
3405,000000	0,841255
3404,000000	0,841954
3403,000000	0,842816
3402,000000	0,843810
3401,000000	0,844707
3400,000000	0,845253
3399,000000	0,845398
3398,000000	0,845248
3397,000000	0,844772
3396,000000	0,843810
3395,000000	0,842594
3394,000000	0,842043
3393,000000	0,843123
3392,000000	0,845806
3391,000000	0,848892
3390,000000	0,850996
3389,000000	0,851602
3388,000000	0,851188
3387,000000	0,850577
3386,000000	0,850389
3385,000000	0,850954
3384,000000	0,852404
3383,000000	0,854671
3382,000000	0,857461
3381,000000	0,860286
3380,000000	0,862548
3379,000000	0,863717
3378,000000	0,863660
3377,000000	0,862912
3376,000000	0,862470
3375,000000	0,863042
3374,000000	0,864399
3373,000000	0,865583
3372,000000	0,865809
3371,000000	0,865097
3370,000000	0,863988
3369,000000	0,862878
3368,000000	0,861846
3367,000000	0,861031
3366,000000	0,860830
3365,000000	0,861510
3364,000000	0,862786
3363,000000	0,863991
3362,000000	0,864696
3361,000000	0,865069
3360,000000	0,865634
3359,000000	0,866750
3358,000000	0,868329
3357,000000	0,869975
3356,000000	0,871286
3355,000000	0,872046
3354,000000	0,872250
3353,000000	0,872075
3352,000000	0,871820
3351,000000	0,871744
3350,000000	0,871905
3349,000000	0,872208
3348,000000	0,872612
3347,000000	0,873173
3346,000000	0,873846
3345,000000	0,874445
3344,000000	0,874942
3343,000000	0,875638
3342,000000	0,876770
3341,000000	0,878026
3340,000000	0,878739
3339,000000	0,878609
3338,000000	0,878038
3337,000000	0,877690
3336,000000	0,877957
3335,000000	0,878895
3334,000000	0,880417
3333,000000	0,882264
3332,000000	0,883901
3331,000000	0,884737
3330,000000	0,884587
3329,000000	0,883911
3328,000000	0,883538
3327,000000	0,884054
3326,000000	0,885368
3325,000000	0,886823
3324,000000	0,887787
3323,000000	0,888156
3322,000000	0,888277
3321,000000	0,888499
3320,000000	0,888901
3319,000000	0,889361
3318,000000	0,889717
3317,000000	0,889860
3316,000000	0,889865
3315,000000	0,889994
3314,000000	0,890382
3313,000000	0,890723
3312,000000	0,890534
3311,000000	0,889825
3310,000000	0,889292
3309,000000	0,889704
3308,000000	0,891243
3307,000000	0,893476
3306,000000	0,895762
3305,000000	0,897554
3304,000000	0,898541
3303,000000	0,898813
3302,000000	0,898859
3301,000000	0,899197
3300,000000	0,899897
3299,000000	0,900499
3298,000000	0,900410
3297,000000	0,899409
3296,000000	0,897878
3295,000000	0,896613
3294,000000	0,896298
3293,000000	0,897006
3292,000000	0,898203
3291,000000	0,899281
3290,000000	0,900104
3289,000000	0,900983
3288,000000	0,902201
3287,000000	0,903618
3286,000000	0,904781
3285,000000	0,905410
3284,000000	0,905681
3283,000000	0,905936
3282,000000	0,906173
3281,000000	0,906062
3280,000000	0,905492
3279,000000	0,904826
3278,000000	0,904403
3277,000000	0,904059
3276,000000	0,903505
3275,000000	0,903019
3274,000000	0,903340
3273,000000	0,904861
3272,000000	0,907237
3271,000000	0,909745
3270,000000	0,911734
3269,000000	0,912786
3268,000000	0,912884
3267,000000	0,912547
3266,000000	0,912436
3265,000000	0,912707
3264,000000	0,912966
3263,000000	0,912906
3262,000000	0,912643
3261,000000	0,912443
3260,000000	0,912532
3259,000000	0,913209
3258,000000	0,914610
3257,000000	0,916194
3256,000000	0,917058
3255,000000	0,917099
3254,000000	0,917375
3253,000000	0,918823
3252,000000	0,920982
3251,000000	0,922550
3250,000000	0,922899
3249,000000	0,922536
3248,000000	0,922207
3247,000000	0,922122
3246,000000	0,922118
3245,000000	0,922078
3244,000000	0,922047
3243,000000	0,922202
3242,000000	0,922783
3241,000000	0,923879
3240,000000	0,925229
3239,000000	0,926406
3238,000000	0,927181
3237,000000	0,927564
3236,000000	0,927616
3235,000000	0,927471
3234,000000	0,927466
3233,000000	0,927932
3232,000000	0,928821
3231,000000	0,929779
3230,000000	0,930631
3229,000000	0,931558
3228,000000	0,932723
3227,000000	0,933933
3226,000000	0,934804
3225,000000	0,935191
3224,000000	0,935325
3223,000000	0,935575
3222,000000	0,936139
3221,000000	0,936971
3220,000000	0,937909
3219,000000	0,938725
3218,000000	0,939063
3217,000000	0,938549
3216,000000	0,937240
3215,000000	0,935934
3214,000000	0,935687
3213,000000	0,936891
3212,000000	0,938995
3211,000000	0,941156
3210,000000	0,942974
3209,000000	0,944497
3208,000000	0,945847
3207,000000	0,947085
3206,000000	0,948243
3205,000000	0,949269
3204,000000	0,949978
3203,000000	0,950221
3202,000000	0,949996
3201,000000	0,949353
3200,000000	0,948386
3199,000000	0,947481
3198,000000	0,947341
3197,000000	0,948479
3196,000000	0,950706
3195,000000	0,953259
3194,000000	0,955339
3193,000000	0,956480
3192,000000	0,956667
3191,000000	0,956325
3190,000000	0,956078
3189,000000	0,956273
3188,000000	0,956723
3187,000000	0,957048
3186,000000	0,957175
3185,000000	0,957400
3184,000000	0,958001
3183,000000	0,958884
3182,000000	0,959564
3181,000000	0,959577
3180,000000	0,959044
3179,000000	0,958799
3178,000000	0,959658
3177,000000	0,961489
3176,000000	0,963302
3175,000000	0,964324
3174,000000	0,964709
3173,000000	0,965085
3172,000000	0,965784
3171,000000	0,966731
3170,000000	0,967766
3169,000000	0,968706
3168,000000	0,969301
3167,000000	0,969446
3166,000000	0,969327
3165,000000	0,969206
3164,000000	0,969227
3163,000000	0,969578
3162,000000	0,970540
3161,000000	0,972111
3160,000000	0,973784
3159,000000	0,975010
3158,000000	0,975688
3157,000000	0,975995
3156,000000	0,976005
3155,000000	0,975797
3154,000000	0,975707
3153,000000	0,976081
3152,000000	0,976880
3151,000000	0,977863
3150,000000	0,979006
3149,000000	0,980427
3148,000000	0,981973
3147,000000	0,983241
3146,000000	0,983991
3145,000000	0,984292
3144,000000	0,984329
3143,000000	0,984316
3142,000000	0,984543
3141,000000	0,985227
3140,000000	0,986320
3139,000000	0,987594
3138,000000	0,988779
3137,000000	0,989477
3136,000000	0,989220
3135,000000	0,987995
3134,000000	0,986606
3133,000000	0,986149
3132,000000	0,987057
3131,000000	0,988843
3130,000000	0,990656
3129,000000	0,991913
3128,000000	0,992499
3127,000000	0,992700
3126,000000	0,992961
3125,000000	0,993538
3124,000000	0,994398
3123,000000	0,995498
3122,000000	0,996892
3121,000000	0,998374
3120,000000	0,999339
3119,000000	0,999414
3118,000000	0,999051
3117,000000	0,999115
3116,000000	0,999948
3115,000000	1,001171
3114,000000	1,002291
3113,000000	1,003085
3112,000000	1,003456
3111,000000	1,003442
3110,000000	1,003429
3109,000000	1,004002
3108,000000	1,005356
3107,000000	1,007066
3106,000000	1,008462
3105,000000	1,009056
3104,000000	1,008694
3103,000000	1,007639
3102,000000	1,006578
3101,000000	1,006188
3100,000000	1,006569
3099,000000	1,007313
3098,000000	1,008180
3097,000000	1,009417
3096,000000	1,011268
3095,000000	1,013458
3094,000000	1,015388
3093,000000	1,016702
3092,000000	1,017505
3091,000000	1,018110
3090,000000	1,018717
3089,000000	1,019335
3088,000000	1,019900
3087,000000	1,020402
3086,000000	1,020859
3085,000000	1,021124
3084,000000	1,020897
3083,000000	1,020081
3082,000000	1,019117
3081,000000	1,018758
3080,000000	1,019478
3079,000000	1,021154
3078,000000	1,023286
3077,000000	1,025390
3076,000000	1,027221
3075,000000	1,028800
3074,000000	1,030247
3073,000000	1,031502
3072,000000	1,032155
3071,000000	1,031695
3070,000000	1,030016
3069,000000	1,027728
3068,000000	1,025916
3067,000000	1,025485
3066,000000	1,026552
3065,000000	1,028424
3064,000000	1,030231
3063,000000	1,031610
3062,000000	1,032736
3061,000000	1,033784
3060,000000	1,034656
3059,000000	1,035247
3058,000000	1,035691
3057,000000	1,036196
3056,000000	1,036840
3055,000000	1,037666
3054,000000	1,038760
3053,000000	1,040086
3052,000000	1,041442
3051,000000	1,042756
3050,000000	1,044209
3049,000000	1,045902
3048,000000	1,047595
3047,000000	1,048977
3046,000000	1,049997
3045,000000	1,050707
3044,000000	1,051046
3043,000000	1,051086
3042,000000	1,051295
3041,000000	1,052151
3040,000000	1,053491
3039,000000	1,054548
3038,000000	1,054676
3037,000000	1,053887
3036,000000	1,052711
3035,000000	1,051719
3034,000000	1,051190
3033,000000	1,051135
3032,000000	1,051572
3031,000000	1,052669
3030,000000	1,054376
3029,000000	1,056020
3028,000000	1,056734
3027,000000	1,056505
3026,000000	1,056372
3025,000000	1,057197
3024,000000	1,058570
3023,000000	1,059366
3022,000000	1,059152
3021,000000	1,058474
3020,000000	1,057916
3019,000000	1,057464
3018,000000	1,056942
3017,000000	1,056537
3016,000000	1,056653
3015,000000	1,057534
3014,000000	1,059230
3013,000000	1,061718
3012,000000	1,064865
3011,000000	1,068391
3010,000000	1,071904
3009,000000	1,074917
3008,000000	1,076910
3007,000000	1,077699
3006,000000	1,077820
3005,000000	1,078290
3004,000000	1,079786
3003,000000	1,082083
3002,000000	1,084339
3001,000000	1,085820
3000,000000	1,086388
2999,000000	1,086437
2998,000000	1,086469
2997,000000	1,086652
2996,000000	1,086750
2995,000000	1,086516
2994,000000	1,086115
2993,000000	1,086063
2992,000000	1,086747
2991,000000	1,088055
2990,000000	1,089450
2989,000000	1,090367
2988,000000	1,090650
2987,000000	1,090684
2986,000000	1,091071
2985,000000	1,092049
2984,000000	1,093278
2983,000000	1,094202
2982,000000	1,094526
2981,000000	1,094315
2980,000000	1,093850
2979,000000	1,093494
2978,000000	1,093469
2977,000000	1,093552
2976,000000	1,093142
2975,000000	1,091910
2974,000000	1,090250
2973,000000	1,088815
2972,000000	1,087700
2971,000000	1,086399
2970,000000	1,084592
2969,000000	1,082634
2968,000000	1,081172
2967,000000	1,080490
2966,000000	1,080334
2965,000000	1,080187
2964,000000	1,079586
2963,000000	1,078352
2962,000000	1,076729
2961,000000	1,075309
2960,000000	1,074668
2959,000000	1,074969
2958,000000	1,075853
2957,000000	1,076701
2956,000000	1,077026
2955,000000	1,076724
2954,000000	1,076056
2953,000000	1,075453
2952,000000	1,075306
2951,000000	1,075809
2950,000000	1,076878
2949,000000	1,078230
2948,000000	1,079570
2947,000000	1,080607
2946,000000	1,080939
2945,000000	1,080147
2944,000000	1,078239
2943,000000	1,075860
2942,000000	1,073750
2941,000000	1,072037
2940,000000	1,070293
2939,000000	1,068273
2938,000000	1,066249
2937,000000	1,064637
2936,000000	1,063595
2935,000000	1,063039
2934,000000	1,062679
2933,000000	1,061944
2932,000000	1,060331
2931,000000	1,058107
2930,000000	1,056384
2929,000000	1,056105
2928,000000	1,057088
2927,000000	1,058252
2926,000000	1,058719
2925,000000	1,058523
2924,000000	1,058461
2923,000000	1,059454
2922,000000	1,061922
2921,000000	1,065469
2920,000000	1,069211
2919,000000	1,072564
2918,000000	1,075722
2917,000000	1,079281
2916,000000	1,083475
2915,000000	1,087895
2914,000000	1,091851
2913,000000	1,094957
2912,000000	1,097459
2911,000000	1,100034
2910,000000	1,103167
2909,000000	1,106636
2908,000000	1,109770
2907,000000	1,112197
2906,000000	1,114182
2905,000000	1,116213
2904,000000	1,118516
2903,000000	1,121048
2902,000000	1,123666
2901,000000	1,126143
2900,000000	1,128252
2899,000000	1,129964
2898,000000	1,131414
2897,000000	1,132620
2896,000000	1,133550
2895,000000	1,134532
2894,000000	1,136225
2893,000000	1,138914
2892,000000	1,142085
2891,000000	1,144955
2890,000000	1,147180
2889,000000	1,148856
2888,000000	1,150099
2887,000000	1,150966
2886,000000	1,151599
2885,000000	1,152134
2884,000000	1,152535
2883,000000	1,152729
2882,000000	1,152809
2881,000000	1,152963
2880,000000	1,153309
2879,000000	1,153949
2878,000000	1,154934
2877,000000	1,155991
2876,000000	1,156519
2875,000000	1,156158
2874,000000	1,155223
2873,000000	1,154344
2872,000000	1,153799
2871,000000	1,153389
2870,000000	1,152765
2869,000000	1,151602
2868,000000	1,149632
2867,000000	1,146904
2866,000000	1,143963
2865,000000	1,141449
2864,000000	1,139559
2863,000000	1,138126
2862,000000	1,137173
2861,000000	1,137014
2860,000000	1,137721
2859,000000	1,138812
2858,000000	1,139701
2857,000000	1,140378
2856,000000	1,141481
2855,000000	1,143666
2854,000000	1,146894
2853,000000	1,150377
2852,000000	1,153274
2851,000000	1,155484
2850,000000	1,157719
2849,000000	1,160760
2848,000000	1,164676
2847,000000	1,168785
2846,000000	1,172330
2845,000000	1,175172
2844,000000	1,177800
2843,000000	1,180714
2842,000000	1,183886
2841,000000	1,186932
2840,000000	1,189715
2839,000000	1,192452
2838,000000	1,195226
2837,000000	1,197783
2836,000000	1,200087
2835,000000	1,202640
2834,000000	1,205800
2833,000000	1,208973
2832,000000	1,211067
2831,000000	1,211731
2830,000000	1,211710
2829,000000	1,212007
2828,000000	1,213086
2827,000000	1,214857
2826,000000	1,216898
2825,000000	1,218639
2824,000000	1,219776
2823,000000	1,220677
2822,000000	1,222011
2821,000000	1,223967
2820,000000	1,226218
2819,000000	1,228566
2818,000000	1,231023
2817,000000	1,233243
2816,000000	1,234613
2815,000000	1,235162
2814,000000	1,235739
2813,000000	1,236909
2812,000000	1,238226
2811,000000	1,238994
2810,000000	1,239317
2809,000000	1,239920
2808,000000	1,241237
2807,000000	1,243055
2806,000000	1,244760
2805,000000	1,245651
2804,000000	1,245379
2803,000000	1,244431
2802,000000	1,243909
2801,000000	1,244493
2800,000000	1,245878
2799,000000	1,247425
2798,000000	1,248915
2797,000000	1,250344
2796,000000	1,251444
2795,000000	1,251961
2794,000000	1,252160
2793,000000	1,252564
2792,000000	1,253366
2791,000000	1,254461
2790,000000	1,255842
2789,000000	1,257587
2788,000000	1,259598
2787,000000	1,261721
2786,000000	1,263913
2785,000000	1,265981
2784,000000	1,267400
2783,000000	1,267846
2782,000000	1,267779
2781,000000	1,268069
2780,000000	1,269111
2779,000000	1,270576
2778,000000	1,271965
2777,000000	1,273069
2776,000000	1,273988
2775,000000	1,275006
2774,000000	1,276398
2773,000000	1,278150
2772,000000	1,279923
2771,000000	1,281465
2770,000000	1,282890
2769,000000	1,284350
2768,000000	1,285650
2767,000000	1,286487
2766,000000	1,286933
2765,000000	1,287377
2764,000000	1,288074
2763,000000	1,289023
2762,000000	1,290205
2761,000000	1,291693
2760,000000	1,293468
2759,000000	1,295260
2758,000000	1,296584
2757,000000	1,296954
2756,000000	1,296282
2755,000000	1,295144
2754,000000	1,294445
2753,000000	1,294696
2752,000000	1,295740
2751,000000	1,297189
2750,000000	1,298825
2749,000000	1,300489
2748,000000	1,301951
2747,000000	1,303103
2746,000000	1,304019
2745,000000	1,304686
2744,000000	1,304993
2743,000000	1,305168
2742,000000	1,305868
2741,000000	1,307498
2740,000000	1,309656
2739,000000	1,311520
2738,000000	1,312666
2737,000000	1,313331
2736,000000	1,314052
2735,000000	1,315200
2734,000000	1,316676
2733,000000	1,317986
2732,000000	1,318792
2731,000000	1,319378
2730,000000	1,320255
2729,000000	1,321343
2728,000000	1,322104
2727,000000	1,322526
2726,000000	1,323327
2725,000000	1,324837
2724,000000	1,326322
2723,000000	1,326924
2722,000000	1,326815
2721,000000	1,326873
2720,000000	1,327523
2719,000000	1,328480
2718,000000	1,329422
2717,000000	1,330368
2716,000000	1,331460
2715,000000	1,332803
2714,000000	1,334433
2713,000000	1,336135
2712,000000	1,337399
2711,000000	1,337933
2710,000000	1,338121
2709,000000	1,338671
2708,000000	1,339864
2707,000000	1,341387
2706,000000	1,342773
2705,000000	1,343752
2704,000000	1,344260
2703,000000	1,344430
2702,000000	1,344594
2701,000000	1,345130
2700,000000	1,346261
2699,000000	1,347962
2698,000000	1,349929
2697,000000	1,351637
2696,000000	1,352724
2695,000000	1,353377
2694,000000	1,354097
2693,000000	1,355023
2692,000000	1,355833
2691,000000	1,356353
2690,000000	1,356852
2689,000000	1,357592
2688,000000	1,358522
2687,000000	1,359592
2686,000000	1,360940
2685,000000	1,362485
2684,000000	1,363743
2683,000000	1,364362
2682,000000	1,364518
2681,000000	1,364579
2680,000000	1,364763
2679,000000	1,365340
2678,000000	1,366645
2677,000000	1,368538
2676,000000	1,370229
2675,000000	1,371087
2674,000000	1,371318
2673,000000	1,371544
2672,000000	1,372122
2671,000000	1,373203
2670,000000	1,374961
2669,000000	1,377164
2668,000000	1,378862
2667,000000	1,379158
2666,000000	1,378209
2665,000000	1,377051
2664,000000	1,376555
2663,000000	1,376909
2662,000000	1,377913
2661,000000	1,379287
2660,000000	1,380704
2659,000000	1,381919
2658,000000	1,382891
2657,000000	1,383665
2656,000000	1,384239
2655,000000	1,384711
2654,000000	1,385344
2653,000000	1,386294
2652,000000	1,387475
2651,000000	1,388803
2650,000000	1,390250
2649,000000	1,391553
2648,000000	1,392287
2647,000000	1,392500
2646,000000	1,392844
2645,000000	1,393757
2644,000000	1,394908
2643,000000	1,395780
2642,000000	1,396427
2641,000000	1,397229
2640,000000	1,398274
2639,000000	1,399415
2638,000000	1,400621
2637,000000	1,401833
2636,000000	1,402738
2635,000000	1,403123
2634,000000	1,403224
2633,000000	1,403387
2632,000000	1,403659
2631,000000	1,404056
2630,000000	1,404875
2629,000000	1,406263
2628,000000	1,407760
2627,000000	1,408792
2626,000000	1,409402
2625,000000	1,410092
2624,000000	1,411144
2623,000000	1,412510
2622,000000	1,414072
2621,000000	1,415523
2620,000000	1,416261
2619,000000	1,415987
2618,000000	1,415316
2617,000000	1,415281
2616,000000	1,416252
2615,000000	1,417728
2614,000000	1,419063
2613,000000	1,419968
2612,000000	1,420443
2611,000000	1,420713
2610,000000	1,421229
2609,000000	1,422319
2608,000000	1,423755
2607,000000	1,424952
2606,000000	1,425575
2605,000000	1,425714
2604,000000	1,425589
2603,000000	1,425380
2602,000000	1,425329
2601,000000	1,425709
2600,000000	1,426639
2599,000000	1,428036
2598,000000	1,429659
2597,000000	1,431158
2596,000000	1,432272
2595,000000	1,433070
2594,000000	1,433742
2593,000000	1,434131
2592,000000	1,433874
2591,000000	1,433191
2590,000000	1,433021
2589,000000	1,433979
2588,000000	1,435564
2587,000000	1,436815
2586,000000	1,437467
2585,000000	1,438028
2584,000000	1,438940
2583,000000	1,440097
2582,000000	1,441119
2581,000000	1,441799
2580,000000	1,442369
2579,000000	1,443451
2578,000000	1,445449
2577,000000	1,447842
2576,000000	1,449483
2575,000000	1,449838
2574,000000	1,449518
2573,000000	1,449318
2572,000000	1,449281
2571,000000	1,449149
2570,000000	1,449234
2569,000000	1,450129
2568,000000	1,451863
2567,000000	1,453926
2566,000000	1,455976
2565,000000	1,457946
2564,000000	1,459610
2563,000000	1,460621
2562,000000	1,460964
2561,000000	1,460988
2560,000000	1,461005
2559,000000	1,461164
2558,000000	1,461525
2557,000000	1,461946
2556,000000	1,462092
2555,000000	1,461965
2554,000000	1,462167
2553,000000	1,463225
2552,000000	1,464841
2551,000000	1,466229
2550,000000	1,466988
2549,000000	1,467237
2548,000000	1,467175
2547,000000	1,467062
2546,000000	1,467454
2545,000000	1,468786
2544,000000	1,470677
2543,000000	1,472142
2542,000000	1,472618
2541,000000	1,472438
2540,000000	1,472320
2539,000000	1,472698
2538,000000	1,473552
2537,000000	1,474534
2536,000000	1,475201
2535,000000	1,475403
2534,000000	1,475490
2533,000000	1,475939
2532,000000	1,476820
2531,000000	1,477765
2530,000000	1,478357
2529,000000	1,478389
2528,000000	1,477881
2527,000000	1,477109
2526,000000	1,476540
2525,000000	1,476572
2524,000000	1,477361
2523,000000	1,478906
2522,000000	1,481027
2521,000000	1,483151
2520,000000	1,484485
2519,000000	1,484720
2518,000000	1,484379
2517,000000	1,484262
2516,000000	1,484781
2515,000000	1,485915
2514,000000	1,487441
2513,000000	1,488901
2512,000000	1,489705
2511,000000	1,489635
2510,000000	1,489086
2509,000000	1,488580
2508,000000	1,488284
2507,000000	1,488160
2506,000000	1,488229
2505,000000	1,488437
2504,000000	1,488611
2503,000000	1,488813
2502,000000	1,489361
2501,000000	1,490231
2500,000000	1,490833
2499,000000	1,490787
2498,000000	1,490537
2497,000000	1,490834
2496,000000	1,491906
2495,000000	1,493471
2494,000000	1,495171
2493,000000	1,496614
2492,000000	1,497420
2491,000000	1,497672
2490,000000	1,497986
2489,000000	1,498705
2488,000000	1,499395
2487,000000	1,499627
2486,000000	1,499830
2485,000000	1,500731
2484,000000	1,502253
2483,000000	1,503636
2482,000000	1,504458
2481,000000	1,504944
2480,000000	1,505360
2479,000000	1,505682
2478,000000	1,505853
2477,000000	1,505880
2476,000000	1,505711
2475,000000	1,505391
2474,000000	1,505250
2473,000000	1,505568
2472,000000	1,506142
2471,000000	1,506567
2470,000000	1,506831
2469,000000	1,507229
2468,000000	1,507813
2467,000000	1,508314
2466,000000	1,508568
2465,000000	1,508703
2464,000000	1,508983
2463,000000	1,509689
2462,000000	1,510980
2461,000000	1,512572
2460,000000	1,513826
2459,000000	1,514456
2458,000000	1,514924
2457,000000	1,515762
2456,000000	1,516788
2455,000000	1,517413
2454,000000	1,517507
2453,000000	1,517490
2452,000000	1,517688
2451,000000	1,518111
2450,000000	1,518778
2449,000000	1,519795
2448,000000	1,521059
2447,000000	1,522196
2446,000000	1,522871
2445,000000	1,523034
2444,000000	1,522979
2443,000000	1,523273
2442,000000	1,524411
2441,000000	1,526327
2440,000000	1,528434
2439,000000	1,530252
2438,000000	1,531666
2437,000000	1,532532
2436,000000	1,532584
2435,000000	1,532078
2434,000000	1,531921
2433,000000	1,532620
2432,000000	1,533584
2431,000000	1,534013
2430,000000	1,534073
2429,000000	1,534492
2428,000000	1,535341
2427,000000	1,535984
2426,000000	1,536112
2425,000000	1,536094
2424,000000	1,536326
2423,000000	1,536870
2422,000000	1,537781
2421,000000	1,539179
2420,000000	1,540863
2419,000000	1,542332
2418,000000	1,543349
2417,000000	1,544135
2416,000000	1,544940
2415,000000	1,545735
2414,000000	1,546353
2413,000000	1,546646
2412,000000	1,546483
2411,000000	1,545931
2410,000000	1,545388
2409,000000	1,545238
2408,000000	1,545396
2407,000000	1,545495
2406,000000	1,545515
2405,000000	1,545863
2404,000000	1,546823
2403,000000	1,548200
2402,000000	1,549551
2401,000000	1,550524
2400,000000	1,550977
2399,000000	1,551004
2398,000000	1,550902
2397,000000	1,550964
2396,000000	1,551297
2395,000000	1,551908
2394,000000	1,552776
2393,000000	1,553658
2392,000000	1,553986
2391,000000	1,553134
2390,000000	1,550664
2389,000000	1,545845
2388,000000	1,537091
2387,000000	1,522354
2386,000000	1,499904
2385,000000	1,468963
2384,000000	1,429237
2383,000000	1,380504
2382,000000	1,323028
2381,000000	1,257873
2380,000000	1,187178
2379,000000	1,113455
2378,000000	1,038862
2377,000000	0,965008
2376,000000	0,893127
2375,000000	0,824405
2374,000000	0,759790
2373,000000	0,699849
2372,000000	0,644846
2371,000000	0,595139
2370,000000	0,550958
2369,000000	0,512014
2368,000000	0,477702
2367,000000	0,447536
2366,000000	0,421620
2365,000000	0,400275
2364,000000	0,383633
2363,000000	0,371657
2362,000000	0,364001
2361,000000	0,360252
2360,000000	0,360289
2359,000000	0,364730
2358,000000	0,375077
2357,000000	0,392832
2356,000000	0,419047
2355,000000	0,454586
2354,000000	0,501004
2353,000000	0,560475
2352,000000	0,632191
2351,000000	0,707026
2350,000000	0,766011
2349,000000	0,788900
2348,000000	0,767988
2347,000000	0,715038
2346,000000	0,653133
2345,000000	0,601285
2344,000000	0,566341
2343,000000	0,546160
2342,000000	0,536758
2341,000000	0,534850
2340,000000	0,537500
2339,000000	0,542230
2338,000000	0,548003
2337,000000	0,554496
2336,000000	0,560925
2335,000000	0,566160
2334,000000	0,569783
2333,000000	0,572600
2332,000000	0,576396
2331,000000	0,583538
2330,000000	0,595920
2329,000000	0,613310
2328,000000	0,633045
2327,000000	0,651893
2326,000000	0,668201
2325,000000	0,682482
2324,000000	0,696716
2323,000000	0,713754
2322,000000	0,736377
2321,000000	0,765866
2320,000000	0,801296
2319,000000	0,840188
2318,000000	0,879544
2317,000000	0,916315
2316,000000	0,948157
2315,000000	0,974754
2314,000000	0,998110
2313,000000	1,021135
2312,000000	1,046009
2311,000000	1,073813
2310,000000	1,104634
2309,000000	1,137473
2308,000000	1,170647
2307,000000	1,203011
2306,000000	1,234396
2305,000000	1,264572
2304,000000	1,292511
2303,000000	1,317262
2302,000000	1,338934
2301,000000	1,358346
2300,000000	1,376147
2299,000000	1,392847
2298,000000	1,409043
2297,000000	1,424984
2296,000000	1,440342
2295,000000	1,454803
2294,000000	1,468584
2293,000000	1,482002
2292,000000	1,495153
2291,000000	1,508332
2290,000000	1,522109
2289,000000	1,536493
2288,000000	1,550599
2287,000000	1,563449
2286,000000	1,574542
2285,000000	1,583287
2284,000000	1,588862
2283,000000	1,591277
2282,000000	1,591722
2281,000000	1,591302
2280,000000	1,589998
2279,000000	1,587618
2278,000000	1,584917
2277,000000	1,582924
2276,000000	1,581786
2275,000000	1,581087
2274,000000	1,580835
2273,000000	1,581272
2272,000000	1,582112
2271,000000	1,582799
2270,000000	1,583319
2269,000000	1,584126
2268,000000	1,585519
2267,000000	1,587510
2266,000000	1,589931
2265,000000	1,592287
2264,000000	1,594037
2263,000000	1,595470
2262,000000	1,597713
2261,000000	1,601304
2260,000000	1,605317
2259,000000	1,608494
2258,000000	1,610665
2257,000000	1,612509
2256,000000	1,614551
2255,000000	1,617055
2254,000000	1,620280
2253,000000	1,624042
2252,000000	1,627443
2251,000000	1,629747
2250,000000	1,631179
2249,000000	1,632369
2248,000000	1,633514
2247,000000	1,634627
2246,000000	1,635957
2245,000000	1,637483
2244,000000	1,638605
2243,000000	1,639072
2242,000000	1,639689
2241,000000	1,641305
2240,000000	1,643598
2239,000000	1,645595
2238,000000	1,646977
2237,000000	1,648121
2236,000000	1,649250
2235,000000	1,650303
2234,000000	1,651338
2233,000000	1,652453
2232,000000	1,653582
2231,000000	1,654838
2230,000000	1,656606
2229,000000	1,658787
2228,000000	1,660516
2227,000000	1,661160
2226,000000	1,661074
2225,000000	1,660858
2224,000000	1,660561
2223,000000	1,660246
2222,000000	1,660599
2221,000000	1,662055
2220,000000	1,663910
2219,000000	1,665138
2218,000000	1,665696
2217,000000	1,666225
2216,000000	1,666984
2215,000000	1,667814
2214,000000	1,668696
2213,000000	1,669514
2212,000000	1,669702
2211,000000	1,668977
2210,000000	1,668082
2209,000000	1,668056
2208,000000	1,669005
2207,000000	1,670239
2206,000000	1,671177
2205,000000	1,671588
2204,000000	1,671451
2203,000000	1,671244
2202,000000	1,671814
2201,000000	1,673267
2200,000000	1,674497
2199,000000	1,674575
2198,000000	1,674034
2197,000000	1,674007
2196,000000	1,674719
2195,000000	1,675639
2194,000000	1,676566
2193,000000	1,677539
2192,000000	1,678194
2191,000000	1,678234
2190,000000	1,678265
2189,000000	1,679146
2188,000000	1,680701
2187,000000	1,681905
2186,000000	1,682181
2185,000000	1,681820
2184,000000	1,681335
2183,000000	1,681169
2182,000000	1,681758
2181,000000	1,683141
2180,000000	1,684654
2179,000000	1,685623
2178,000000	1,686120
2177,000000	1,686558
2176,000000	1,686967
2175,000000	1,687249
2174,000000	1,687663
2173,000000	1,688348
2172,000000	1,688801
2171,000000	1,688549
2170,000000	1,687982
2169,000000	1,687881
2168,000000	1,688469
2167,000000	1,689480
2166,000000	1,690659
2165,000000	1,691604
2164,000000	1,691721
2163,000000	1,691082
2162,000000	1,690787
2161,000000	1,691661
2160,000000	1,693091
2159,000000	1,693914
2158,000000	1,693939
2157,000000	1,693774
2156,000000	1,693672
2155,000000	1,693542
2154,000000	1,693678
2153,000000	1,694488
2152,000000	1,695670
2151,000000	1,696473
2150,000000	1,696651
2149,000000	1,696573
2148,000000	1,696666
2147,000000	1,697203
2146,000000	1,698247
2145,000000	1,699271
2144,000000	1,699410
2143,000000	1,698688
2142,000000	1,698332
2141,000000	1,699201
2140,000000	1,700563
2139,000000	1,701207
2138,000000	1,701126
2137,000000	1,701201
2136,000000	1,701833
2135,000000	1,702820
2134,000000	1,704037
2133,000000	1,705274
2132,000000	1,705889
2131,000000	1,705601
2130,000000	1,705227
2129,000000	1,705691
2128,000000	1,706720
2127,000000	1,707448
2126,000000	1,707828
2125,000000	1,708434
2124,000000	1,709275
2123,000000	1,709868
2122,000000	1,710268
2121,000000	1,710982
2120,000000	1,712014
2119,000000	1,712842
2118,000000	1,713216
2117,000000	1,713278
2116,000000	1,713141
2115,000000	1,713043
2114,000000	1,713589
2113,000000	1,715072
2112,000000	1,716861
2111,000000	1,718150
2110,000000	1,718985
2109,000000	1,719875
2108,000000	1,720850
2107,000000	1,721672
2106,000000	1,722541
2105,000000	1,723774
2104,000000	1,725103
2103,000000	1,726084
2102,000000	1,726844
2101,000000	1,727782
2100,000000	1,728854
2099,000000	1,729791
2098,000000	1,730559
2097,000000	1,730999
2096,000000	1,730611
2095,000000	1,729422
2094,000000	1,728481
2093,000000	1,728716
2092,000000	1,729844
2091,000000	1,731136
2090,000000	1,732620
2089,000000	1,734655
2088,000000	1,736952
2087,000000	1,738916
2086,000000	1,740470
2085,000000	1,741742
2084,000000	1,742487
2083,000000	1,742654
2082,000000	1,742875
2081,000000	1,743536
2080,000000	1,744053
2079,000000	1,743949
2078,000000	1,743920
2077,000000	1,744812
2076,000000	1,746221
2075,000000	1,747203
2074,000000	1,747744
2073,000000	1,748454
2072,000000	1,749379
2071,000000	1,750159
2070,000000	1,750732
2069,000000	1,750819
2068,000000	1,749537
2067,000000	1,746861
2066,000000	1,744802
2065,000000	1,745544
2064,000000	1,748761
2063,000000	1,752136
2062,000000	1,754282
2061,000000	1,755717
2060,000000	1,757191
2059,000000	1,758575
2058,000000	1,759602
2057,000000	1,760489
2056,000000	1,761486
2055,000000	1,762638
2054,000000	1,764062
2053,000000	1,765817
2052,000000	1,767568
2051,000000	1,768974
2050,000000	1,770147
2049,000000	1,771149
2048,000000	1,771497
2047,000000	1,770849
2046,000000	1,769634
2045,000000	1,768294
2044,000000	1,766603
2043,000000	1,764693
2042,000000	1,763963
2041,000000	1,765708
2040,000000	1,769286
2039,000000	1,772801
2038,000000	1,775265
2037,000000	1,777007
2036,000000	1,778394
2035,000000	1,779385
2034,000000	1,780142
2033,000000	1,780991
2032,000000	1,781886
2031,000000	1,782684
2030,000000	1,783633
2029,000000	1,784847
2028,000000	1,785802
2027,000000	1,786113
2026,000000	1,786228
2025,000000	1,786536
2024,000000	1,786572
2023,000000	1,785921
2022,000000	1,784811
2021,000000	1,782738
2020,000000	1,777986
2019,000000	1,770493
2018,000000	1,764194
2017,000000	1,764074
2016,000000	1,770850
2015,000000	1,780401
2014,000000	1,788345
2013,000000	1,793244
2012,000000	1,795567
2011,000000	1,795990
2010,000000	1,795584
2009,000000	1,795931
2008,000000	1,797783
2007,000000	1,800392
2006,000000	1,802681
2005,000000	1,804287
2004,000000	1,805250
2003,000000	1,805716
2002,000000	1,806152
2001,000000	1,806969
2000,000000	1,807837
1999,000000	1,808285
1998,000000	1,808534
1997,000000	1,808057
1996,000000	1,803649
1995,000000	1,791657
1994,000000	1,773522
1993,000000	1,757299
1992,000000	1,751463
1991,000000	1,757490
1990,000000	1,769793
1989,000000	1,782075
1988,000000	1,791985
1987,000000	1,800130
1986,000000	1,806904
1985,000000	1,811786
1984,000000	1,814724
1983,000000	1,816572
1982,000000	1,818082
1981,000000	1,819267
1980,000000	1,819990
1979,000000	1,820583
1978,000000	1,821580
1977,000000	1,823085
1976,000000	1,824694
1975,000000	1,825982
1974,000000	1,826824
1973,000000	1,827173
1972,000000	1,826167
1971,000000	1,821613
1970,000000	1,811494
1969,000000	1,797332
1968,000000	1,785619
1967,000000	1,783701
1966,000000	1,793041
1965,000000	1,807378
1964,000000	1,818543
1963,000000	1,823382
1962,000000	1,824449
1961,000000	1,825489
1960,000000	1,827926
1959,000000	1,830916
1958,000000	1,832920
1957,000000	1,833110
1956,000000	1,832293
1955,000000	1,832482
1954,000000	1,834828
1953,000000	1,838417
1952,000000	1,841543
1951,000000	1,843163
1950,000000	1,842632
1949,000000	1,839337
1948,000000	1,833349
1947,000000	1,824494
1946,000000	1,810152
1945,000000	1,787785
1944,000000	1,762571
1943,000000	1,748844
1942,000000	1,758306
1941,000000	1,787283
1940,000000	1,819546
1939,000000	1,841679
1938,000000	1,851939
1937,000000	1,855225
1936,000000	1,855511
1935,000000	1,854849
1934,000000	1,855107
1933,000000	1,857136
1932,000000	1,859936
1931,000000	1,862356
1930,000000	1,864549
1929,000000	1,866691
1928,000000	1,867216
1927,000000	1,862603
1926,000000	1,848925
1925,000000	1,826402
1924,000000	1,803694
1923,000000	1,792754
1922,000000	1,794374
1921,000000	1,793288
1920,000000	1,776008
1919,000000	1,751649
1918,000000	1,745438
1917,000000	1,769832
1916,000000	1,811006
1915,000000	1,845836
1914,000000	1,863029
1913,000000	1,863920
1912,000000	1,853034
1911,000000	1,836858
1910,000000	1,825743
1909,000000	1,827371
1908,000000	1,839190
1907,000000	1,852768
1906,000000	1,863351
1905,000000	1,870988
1904,000000	1,875678
1903,000000	1,877303
1902,000000	1,878359
1901,000000	1,881414
1900,000000	1,884527
1899,000000	1,882935
1898,000000	1,874583
1897,000000	1,862212
1896,000000	1,851678
1895,000000	1,848657
1894,000000	1,852544
1893,000000	1,852295
1892,000000	1,835659
1891,000000	1,806681
1890,000000	1,787420
1889,000000	1,795400
1888,000000	1,824513
1887,000000	1,854213
1886,000000	1,872428
1885,000000	1,881747
1884,000000	1,887552
1883,000000	1,890870
1882,000000	1,892040
1881,000000	1,892938
1880,000000	1,893999
1879,000000	1,894462
1878,000000	1,895426
1877,000000	1,898418
1876,000000	1,901900
1875,000000	1,902341
1874,000000	1,895875
1873,000000	1,874335
1872,000000	1,826718
1871,000000	1,754695
1870,000000	1,684501
1869,000000	1,651668
1868,000000	1,671277
1867,000000	1,727854
1866,000000	1,792991
1865,000000	1,845883
1864,000000	1,878180
1863,000000	1,891069
1862,000000	1,892488
1861,000000	1,891542
1860,000000	1,891896
1859,000000	1,892825
1858,000000	1,895183
1857,000000	1,900769
1856,000000	1,907087
1855,000000	1,909501
1854,000000	1,908554
1853,000000	1,908044
1852,000000	1,906121
1851,000000	1,896716
1850,000000	1,878917
1849,000000	1,855088
1848,000000	1,818395
1847,000000	1,756220
1846,000000	1,675056
1845,000000	1,612398
1844,000000	1,609749
1843,000000	1,672811
1842,000000	1,764725
1841,000000	1,838992
1840,000000	1,874583
1839,000000	1,881049
1838,000000	1,878582
1837,000000	1,879536
1836,000000	1,885375
1835,000000	1,890054
1834,000000	1,880389
1833,000000	1,840697
1832,000000	1,770324
1831,000000	1,698132
1830,000000	1,664935
1829,000000	1,682456
1828,000000	1,718560
1827,000000	1,735362
1826,000000	1,732842
1825,000000	1,742252
1824,000000	1,781629
1823,000000	1,835173
1822,000000	1,877403
1821,000000	1,899279
1820,000000	1,905828
1819,000000	1,903208
1818,000000	1,897956
1817,000000	1,898084
1816,000000	1,904231
1815,000000	1,904762
1814,000000	1,887827
1813,000000	1,856178
1812,000000	1,825130
1811,000000	1,809679
1810,000000	1,815803
1809,000000	1,838994
1808,000000	1,866776
1807,000000	1,885760
1806,000000	1,889115
1805,000000	1,875550
1804,000000	1,843876
1803,000000	1,796859
1802,000000	1,749797
1801,000000	1,724564
1800,000000	1,730645
1799,000000	1,757816
1798,000000	1,787936
1797,000000	1,803399
1796,000000	1,785790
1795,000000	1,723958
1794,000000	1,635519
1793,000000	1,568080
1792,000000	1,565861
1791,000000	1,633252
1790,000000	1,734003
1789,000000	1,820517
1788,000000	1,861900
1787,000000	1,857331
1786,000000	1,832659
1785,000000	1,817251
1784,000000	1,817129
1783,000000	1,815656
1782,000000	1,803043
1781,000000	1,793170
1780,000000	1,802812
1779,000000	1,825905
1778,000000	1,839610
1777,000000	1,825002
1776,000000	1,771228
1775,000000	1,674950
1774,000000	1,556530
1773,000000	1,466835
1772,000000	1,451624
1771,000000	1,505644
1770,000000	1,581328
1769,000000	1,644790
1768,000000	1,703282
1767,000000	1,770937
1766,000000	1,828877
1765,000000	1,839113
1764,000000	1,792064
1763,000000	1,725502
1762,000000	1,691744
1761,000000	1,708667
1760,000000	1,746522
1759,000000	1,763289
1758,000000	1,752371
1757,000000	1,746668
1756,000000	1,769082
1755,000000	1,792918
1754,000000	1,767603
1753,000000	1,680720
1752,000000	1,575852
1751,000000	1,506647
1750,000000	1,492390
1749,000000	1,521121
1748,000000	1,574064
1747,000000	1,632410
1746,000000	1,676032
1745,000000	1,694525
1744,000000	1,693454
1743,000000	1,679232
1742,000000	1,649449
1741,000000	1,612395
1740,000000	1,598404
1739,000000	1,623359
1738,000000	1,644510
1737,000000	1,591014
1736,000000	1,451390
1735,000000	1,308117
1734,000000	1,262788
1733,000000	1,337866
1732,000000	1,470587
1731,000000	1,590596
1730,000000	1,678327
1729,000000	1,749163
1728,000000	1,809575
1727,000000	1,847449
1726,000000	1,854994
1725,000000	1,843122
1724,000000	1,830539
1723,000000	1,819223
1722,000000	1,784376
1721,000000	1,691273
1720,000000	1,534852
1719,000000	1,363464
1718,000000	1,251141
1717,000000	1,239371
1716,000000	1,311734
1715,000000	1,424630
1714,000000	1,546162
1713,000000	1,657693
1712,000000	1,739003
1711,000000	1,774945
1710,000000	1,768569
1709,000000	1,730008
1708,000000	1,662761
1707,000000	1,580789
1706,000000	1,522793
1705,000000	1,510785
1704,000000	1,500314
1703,000000	1,416762
1702,000000	1,257875
1701,000000	1,120141
1700,000000	1,091503
1699,000000	1,148981
1698,000000	1,202953
1697,000000	1,220832
1696,000000	1,260133
1695,000000	1,376440
1694,000000	1,542203
1693,000000	1,676542
1692,000000	1,728860
1691,000000	1,715731
1690,000000	1,682875
1689,000000	1,648386
1688,000000	1,582378
1687,000000	1,446318
1686,000000	1,259628
1685,000000	1,114408
1684,000000	1,101613
1683,000000	1,223533
1682,000000	1,396673
1681,000000	1,539293
1680,000000	1,625426
1679,000000	1,655016
1678,000000	1,619785
1677,000000	1,530062
1676,000000	1,444298
1675,000000	1,424309
1674,000000	1,463717
1673,000000	1,492248
1672,000000	1,459164
1671,000000	1,389856
1670,000000	1,354540
1669,000000	1,399025
1668,000000	1,509003
1667,000000	1,623801
1666,000000	1,678698
1665,000000	1,651012
1664,000000	1,581225
1663,000000	1,540764
1662,000000	1,568059
1661,000000	1,640342
1660,000000	1,706921
1659,000000	1,733019
1658,000000	1,700457
1657,000000	1,584920
1656,000000	1,372782
1655,000000	1,111598
1654,000000	0,918040
1653,000000	0,898313
1652,000000	1,048933
1651,000000	1,248505
1650,000000	1,356797
1649,000000	1,329673
1648,000000	1,239407
1647,000000	1,196927
1646,000000	1,259014
1645,000000	1,399861
1644,000000	1,549006
1643,000000	1,650671
1642,000000	1,691206
1641,000000	1,683795
1640,000000	1,634308
1639,000000	1,531794
1638,000000	1,380154
1637,000000	1,230894
1636,000000	1,164544
1635,000000	1,226436
1634,000000	1,383706
1633,000000	1,551725
1632,000000	1,657763
1631,000000	1,681074
1630,000000	1,647739
1629,000000	1,601432
1628,000000	1,572380
1627,000000	1,558754
1626,000000	1,535031
1625,000000	1,489056
1624,000000	1,448804
1623,000000	1,458615
1622,000000	1,523698
1621,000000	1,588552
1620,000000	1,583147
1619,000000	1,491875
1618,000000	1,373055
1617,000000	1,312496
1616,000000	1,354189
1615,000000	1,469735
1614,000000	1,588584
1613,000000	1,656378
1612,000000	1,667508
1611,000000	1,650548
1610,000000	1,632723
1609,000000	1,624652
1608,000000	1,627709
1607,000000	1,640576
1606,000000	1,656304
1605,000000	1,665086
1604,000000	1,665207
1603,000000	1,665618
1602,000000	1,673909
1601,000000	1,687217
1600,000000	1,698064
1599,000000	1,702735
1598,000000	1,700520
1597,000000	1,691304
1596,000000	1,679258
1595,000000	1,673403
1594,000000	1,678435
1593,000000	1,688489
1592,000000	1,695254
1591,000000	1,698608
1590,000000	1,703578
1589,000000	1,710637
1588,000000	1,715836
1587,000000	1,718324
1586,000000	1,720466
1585,000000	1,721572
1584,000000	1,718895
1583,000000	1,714570
1582,000000	1,712653
1581,000000	1,703292
1580,000000	1,658627
1579,000000	1,556597
1578,000000	1,416953
1577,000000	1,306573
1576,000000	1,294794
1575,000000	1,390077
1574,000000	1,519923
1573,000000	1,585382
1572,000000	1,546062
1571,000000	1,452700
1570,000000	1,394066
1569,000000	1,415078
1568,000000	1,487127
1567,000000	1,552261
1566,000000	1,581580
1565,000000	1,584121
1564,000000	1,564179
1563,000000	1,487963
1562,000000	1,314063
1561,000000	1,063661
1560,000000	0,843182
1559,000000	0,769116
1558,000000	0,863630
1557,000000	1,040763
1556,000000	1,199602
1555,000000	1,309828
1554,000000	1,395997
1553,000000	1,470050
1552,000000	1,515747
1551,000000	1,531806
1550,000000	1,545190
1549,000000	1,569491
1548,000000	1,576490
1547,000000	1,530798
1546,000000	1,434709
1545,000000	1,320159
1544,000000	1,206729
1543,000000	1,089485
1542,000000	0,970245
1541,000000	0,885917
1540,000000	0,894191
1539,000000	1,022430
1538,000000	1,224664
1537,000000	1,396512
1536,000000	1,454345
1535,000000	1,410916
1534,000000	1,359994
1533,000000	1,380607
1532,000000	1,464656
1531,000000	1,543463
1530,000000	1,563041
1529,000000	1,521814
1528,000000	1,452203
1527,000000	1,389588
1526,000000	1,349320
1525,000000	1,313995
1524,000000	1,250926
1523,000000	1,159773
1522,000000	1,092820
1521,000000	1,101654
1520,000000	1,171471
1519,000000	1,237429
1518,000000	1,267337
1517,000000	1,293865
1516,000000	1,355066
1515,000000	1,435962
1514,000000	1,490641
1513,000000	1,499279
1512,000000	1,471773
1511,000000	1,408035
1510,000000	1,289379
1509,000000	1,120949
1508,000000	0,963509
1507,000000	0,904674
1506,000000	0,992566
1505,000000	1,194155
1504,000000	1,414978
1503,000000	1,563218
1502,000000	1,603767
1501,000000	1,559396
1500,000000	1,472422
1499,000000	1,376159
1498,000000	1,299965
1497,000000	1,276103
1496,000000	1,320869
1495,000000	1,407836
1494,000000	1,476235
1493,000000	1,476026
1492,000000	1,408904
1491,000000	1,325451
1490,000000	1,283652
1489,000000	1,307622
1488,000000	1,382791
1487,000000	1,480940
1486,000000	1,580304
1485,000000	1,662409
1484,000000	1,708992
1483,000000	1,717728
1482,000000	1,711507
1481,000000	1,713442
1480,000000	1,715159
1479,000000	1,687897
1478,000000	1,622696
1477,000000	1,538652
1476,000000	1,451455
1475,000000	1,360385
1474,000000	1,278998
1473,000000	1,251692
1472,000000	1,315926
1471,000000	1,454154
1470,000000	1,600056
1469,000000	1,687805
1468,000000	1,689854
1467,000000	1,624756
1466,000000	1,546044
1465,000000	1,513464
1464,000000	1,548806
1463,000000	1,614113
1462,000000	1,639241
1461,000000	1,575014
1460,000000	1,422421
1459,000000	1,232360
1458,000000	1,086824
1457,000000	1,059448
1456,000000	1,162679
1455,000000	1,333499
1454,000000	1,485785
1453,000000	1,576781
1452,000000	1,614616
1451,000000	1,617372
1450,000000	1,594677
1449,000000	1,565284
1448,000000	1,561188
1447,000000	1,598501
1446,000000	1,658919
1445,000000	1,710770
1444,000000	1,739527
1443,000000	1,751515
1442,000000	1,754121
1441,000000	1,738438
1440,000000	1,681695
1439,000000	1,573833
1438,000000	1,449201
1437,000000	1,378890
1436,000000	1,410683
1435,000000	1,517536
1434,000000	1,620232
1433,000000	1,662942
1432,000000	1,652016
1431,000000	1,627955
1430,000000	1,622748
1429,000000	1,644766
1428,000000	1,680042
1427,000000	1,699640
1426,000000	1,684508
1425,000000	1,650098
1424,000000	1,627270
1423,000000	1,612461
1422,000000	1,564582
1421,000000	1,466639
1420,000000	1,367580
1419,000000	1,338771
1418,000000	1,399506
1417,000000	1,507185
1416,000000	1,607449
1415,000000	1,673570
1414,000000	1,703741
1413,000000	1,707175
1412,000000	1,699503
1411,000000	1,695270
1410,000000	1,695967
1409,000000	1,690058
1408,000000	1,666763
1407,000000	1,627266
1406,000000	1,586932
1405,000000	1,568036
1404,000000	1,580675
1403,000000	1,604786
1402,000000	1,602476
1401,000000	1,559249
1400,000000	1,503529
1399,000000	1,471183
1398,000000	1,462787
1397,000000	1,453574
1396,000000	1,438327
1395,000000	1,443440
1394,000000	1,490212
1393,000000	1,564789
1392,000000	1,629231
1391,000000	1,651692
1390,000000	1,624943
1389,000000	1,569686
1388,000000	1,525480
1387,000000	1,524824
1386,000000	1,566268
1385,000000	1,618576
1384,000000	1,653646
1383,000000	1,667512
1382,000000	1,669942
1381,000000	1,666929
1380,000000	1,659998
1379,000000	1,650639
1378,000000	1,635475
1377,000000	1,605686
1376,000000	1,562353
1375,000000	1,527074
1374,000000	1,525420
1373,000000	1,559574
1372,000000	1,604387
1371,000000	1,632643
1370,000000	1,638875
1369,000000	1,637381
1368,000000	1,640997
1367,000000	1,644209
1366,000000	1,628773
1365,000000	1,586328
1364,000000	1,533795
1363,000000	1,503028
1362,000000	1,512996
1361,000000	1,554681
1360,000000	1,602865
1359,000000	1,637632
1358,000000	1,653826
1357,000000	1,656279
1356,000000	1,652829
1355,000000	1,650594
1354,000000	1,652871
1353,000000	1,657518
1352,000000	1,660280
1351,000000	1,660026
1350,000000	1,659405
1349,000000	1,660746
1348,000000	1,663383
1347,000000	1,665432
1346,000000	1,666123
1345,000000	1,664430
1344,000000	1,655816
1343,000000	1,633406
1342,000000	1,595867
1341,000000	1,554155
1340,000000	1,527298
1339,000000	1,528213
1338,000000	1,553609
1337,000000	1,588958
1336,000000	1,620996
1335,000000	1,644019
1334,000000	1,657530
1333,000000	1,662944
1332,000000	1,663373
1331,000000	1,662748
1330,000000	1,663127
1329,000000	1,664033
1328,000000	1,664714
1327,000000	1,665139
1326,000000	1,664839
1325,000000	1,662880
1324,000000	1,659007
1323,000000	1,652975
1322,000000	1,643286
1321,000000	1,629339
1320,000000	1,615090
1319,000000	1,607332
1318,000000	1,608822
1317,000000	1,615117
1316,000000	1,619384
1315,000000	1,619196
1314,000000	1,617627
1313,000000	1,618977
1312,000000	1,624529
1311,000000	1,631593
1310,000000	1,636052
1309,000000	1,636271
1308,000000	1,634446
1307,000000	1,633729
1306,000000	1,634633
1305,000000	1,635421
1304,000000	1,635285
1303,000000	1,635189
1302,000000	1,635794
1301,000000	1,636299
1300,000000	1,635707
1299,000000	1,633913
1298,000000	1,631414
1297,000000	1,629078
1296,000000	1,628021
1295,000000	1,628427
1294,000000	1,628689
1293,000000	1,626957
1292,000000	1,623384
1291,000000	1,619653
1290,000000	1,616739
1289,000000	1,614634
1288,000000	1,613663
1287,000000	1,614196
1286,000000	1,615173
1285,000000	1,614756
1284,000000	1,612587
1283,000000	1,609974
1282,000000	1,607832
1281,000000	1,605893
1280,000000	1,603942
1279,000000	1,602229
1278,000000	1,600523
1277,000000	1,598056
1276,000000	1,594497
1275,000000	1,589854
1274,000000	1,583766
1273,000000	1,576246
1272,000000	1,568873
1271,000000	1,563570
1270,000000	1,560247
1269,000000	1,557043
1268,000000	1,552797
1267,000000	1,547859
1266,000000	1,542529
1265,000000	1,536406
1264,000000	1,529470
1263,000000	1,522608
1262,000000	1,516915
1261,000000	1,513514
1260,000000	1,513709
1259,000000	1,517734
1258,000000	1,523571
1257,000000	1,528460
1256,000000	1,531556
1255,000000	1,533853
1254,000000	1,535801
1253,000000	1,536708
1252,000000	1,536415
1251,000000	1,535759
1250,000000	1,535065
1249,000000	1,533704
1248,000000	1,531431
1247,000000	1,528855
1246,000000	1,526414
1245,000000	1,524141
1244,000000	1,522496
1243,000000	1,522056
1242,000000	1,522202
1241,000000	1,521488
1240,000000	1,519531
1239,000000	1,517341
1238,000000	1,515621
1237,000000	1,514037
1236,000000	1,512284
1235,000000	1,510578
1234,000000	1,508848
1233,000000	1,506647
1232,000000	1,504115
1231,000000	1,501886
1230,000000	1,499815
1229,000000	1,496956
1228,000000	1,493059
1227,000000	1,489029
1226,000000	1,485725
1225,000000	1,483212
1224,000000	1,481286
1223,000000	1,479651
1222,000000	1,477511
1221,000000	1,474109
1220,000000	1,469853
1219,000000	1,465950
1218,000000	1,462817
1217,000000	1,459789
1216,000000	1,456369
1215,000000	1,452722
1214,000000	1,448994
1213,000000	1,445266
1212,000000	1,442177
1211,000000	1,440418
1210,000000	1,439498
1209,000000	1,438088
1208,000000	1,435688
1207,000000	1,432941
1206,000000	1,430288
1205,000000	1,427495
1204,000000	1,424599
1203,000000	1,422144
1202,000000	1,420273
1201,000000	1,418578
1200,000000	1,416987
1199,000000	1,415756
1198,000000	1,414465
1197,000000	1,412197
1196,000000	1,408935
1195,000000	1,405768
1194,000000	1,403429
1193,000000	1,401565
1192,000000	1,399590
1191,000000	1,397328
1190,000000	1,394591
1189,000000	1,391129
1188,000000	1,387286
1187,000000	1,383804
1186,000000	1,380711
1185,000000	1,377158
1184,000000	1,372547
1183,000000	1,367121
1182,000000	1,361428
1181,000000	1,356000
1180,000000	1,351584
1179,000000	1,348676
1178,000000	1,346657
1177,000000	1,344271
1176,000000	1,341124
1175,000000	1,337948
1174,000000	1,335301
1173,000000	1,332837
1172,000000	1,330035
1171,000000	1,326781
1170,000000	1,323056
1169,000000	1,318748
1168,000000	1,313940
1167,000000	1,308758
1166,000000	1,302981
1165,000000	1,296581
1164,000000	1,290535
1163,000000	1,286193
1162,000000	1,283750
1161,000000	1,282122
1160,000000	1,280313
1159,000000	1,278032
1158,000000	1,275043
1157,000000	1,271014
1156,000000	1,266321
1155,000000	1,262041
1154,000000	1,258779
1153,000000	1,256134
1152,000000	1,253522
1151,000000	1,250870
1150,000000	1,248276
1149,000000	1,245638
1148,000000	1,242846
1147,000000	1,239885
1146,000000	1,236717
1145,000000	1,233533
1144,000000	1,230996
1143,000000	1,229583
1142,000000	1,228788
1141,000000	1,227637
1140,000000	1,225866
1139,000000	1,223921
1138,000000	1,222036
1137,000000	1,220143
1136,000000	1,218550
1135,000000	1,217733
1134,000000	1,217407
1133,000000	1,216651
1132,000000	1,215056
1131,000000	1,212994
1130,000000	1,210787
1129,000000	1,208378
1128,000000	1,205846
1127,000000	1,203458
1126,000000	1,201112
1125,000000	1,198461
1124,000000	1,195610
1123,000000	1,193028
1122,000000	1,190788
1121,000000	1,188701
1120,000000	1,187082
1119,000000	1,186563
1118,000000	1,187100
1117,000000	1,187953
1116,000000	1,188704
1115,000000	1,189532
1114,000000	1,190555
1113,000000	1,191779
1112,000000	1,193664
1111,000000	1,196865
1110,000000	1,201253
1109,000000	1,205998
1108,000000	1,210753
1107,000000	1,215902
1106,000000	1,221635
1105,000000	1,227601
1104,000000	1,233653
1103,000000	1,240080
1102,000000	1,246864
1101,000000	1,253481
1100,000000	1,259609
1099,000000	1,265341
1098,000000	1,270519
1097,000000	1,274693
1096,000000	1,277946
1095,000000	1,280986
1094,000000	1,284155
1093,000000	1,286967
1092,000000	1,288897
1091,000000	1,289953
1090,000000	1,290224
1089,000000	1,289621
1088,000000	1,288341
1087,000000	1,287019
1086,000000	1,286030
1085,000000	1,285022
1084,000000	1,283436
1083,000000	1,281014
1082,000000	1,277765
1081,000000	1,273870
1080,000000	1,269796
1079,000000	1,266063
1078,000000	1,262752
1077,000000	1,259579
1076,000000	1,256429
1075,000000	1,253379
1074,000000	1,250344
1073,000000	1,247226
1072,000000	1,244319
1071,000000	1,241953
1070,000000	1,239745
1069,000000	1,236854
1068,000000	1,232981
1067,000000	1,228609
1066,000000	1,224262
1065,000000	1,220086
1064,000000	1,216090
1063,000000	1,212154
1062,000000	1,207826
1061,000000	1,202792
1060,000000	1,197453
1059,000000	1,192389
1058,000000	1,187201
1057,000000	1,180528
1056,000000	1,171373
1055,000000	1,159828
1054,000000	1,146809
1053,000000	1,133820
1052,000000	1,122931
1051,000000	1,115884
1050,000000	1,112951
1049,000000	1,113102
1048,000000	1,115317
1047,000000	1,119086
1046,000000	1,123530
1045,000000	1,127193
1044,000000	1,128972
1043,000000	1,128733
1042,000000	1,126807
1041,000000	1,123610
1040,000000	1,119812
1039,000000	1,116048
1038,000000	1,112165
1037,000000	1,107361
1036,000000	1,101440
1035,000000	1,095185
1034,000000	1,089315
1033,000000	1,083735
1032,000000	1,078113
1031,000000	1,072501
1030,000000	1,067000
1029,000000	1,061438
1028,000000	1,055787
1027,000000	1,050375
1026,000000	1,045304
1025,000000	1,040141
1024,000000	1,034506
1023,000000	1,028545
1022,000000	1,022538
1021,000000	1,016567
1020,000000	1,010815
1019,000000	1,005698
1018,000000	1,001275
1017,000000	0,997015
1016,000000	0,992437
1015,000000	0,987643
1014,000000	0,982973
1013,000000	0,978583
1012,000000	0,974654
1011,000000	0,971499
1010,000000	0,969111
1009,000000	0,966999
1008,000000	0,964750
1007,000000	0,962393
1006,000000	0,960004
1005,000000	0,957435
1004,000000	0,954753
1003,000000	0,952417
1002,000000	0,950622
1001,000000	0,948851
1000,000000	0,946512
999,000000	0,943737
998,000000	0,941115
997,000000	0,938934
996,000000	0,937081
995,000000	0,935480
994,000000	0,934239
993,000000	0,933415
992,000000	0,932902
991,000000	0,932478
990,000000	0,931815
989,000000	0,930611
988,000000	0,928828
987,000000	0,926666
986,000000	0,924268
985,000000	0,921716
984,000000	0,919352
983,000000	0,917708
982,000000	0,916937
981,000000	0,916603
980,000000	0,916225
979,000000	0,915705
978,000000	0,915077
977,000000	0,914167
976,000000	0,912800
975,000000	0,911077
974,000000	0,909222
973,000000	0,907338
972,000000	0,905484
971,000000	0,903798
970,000000	0,902365
969,000000	0,901123
968,000000	0,900008
967,000000	0,898988
966,000000	0,897897
965,000000	0,896531
964,000000	0,894967
963,000000	0,893494
962,000000	0,892127
961,000000	0,890582
960,000000	0,888864
959,000000	0,887453
958,000000	0,886617
957,000000	0,885879
956,000000	0,884572
955,000000	0,882694
954,000000	0,880879
953,000000	0,879602
952,000000	0,878700
951,000000	0,877635
950,000000	0,876019
949,000000	0,873941
948,000000	0,871887
947,000000	0,870281
946,000000	0,869101
945,000000	0,868046
944,000000	0,867031
943,000000	0,866166
942,000000	0,865204
941,000000	0,863455
940,000000	0,860585
939,000000	0,857230
938,000000	0,854437
937,000000	0,852608
936,000000	0,851289
935,000000	0,849852
934,000000	0,848093
933,000000	0,846164
932,000000	0,844241
931,000000	0,842381
930,000000	0,840532
929,000000	0,838575
928,000000	0,836441
927,000000	0,834218
926,000000	0,832088
925,000000	0,830098
924,000000	0,828048
923,000000	0,825704
922,000000	0,823126
921,000000	0,820680
920,000000	0,818631
919,000000	0,816762
918,000000	0,814618
917,000000	0,812095
916,000000	0,809570
915,000000	0,807325
914,000000	0,805091
913,000000	0,802394
912,000000	0,799184
911,000000	0,795879
910,000000	0,792873
909,000000	0,790233
908,000000	0,787791
907,000000	0,785289
906,000000	0,782544
905,000000	0,779691
904,000000	0,777150
903,000000	0,775099
902,000000	0,773121
901,000000	0,770705
900,000000	0,767981
899,000000	0,765507
898,000000	0,763443
897,000000	0,761388
896,000000	0,759095
895,000000	0,756827
894,000000	0,754821
893,000000	0,752890
892,000000	0,750816
891,000000	0,748780
890,000000	0,747009
889,000000	0,745238
888,000000	0,742911
887,000000	0,739861
886,000000	0,736481
885,000000	0,733193
884,000000	0,730015
883,000000	0,726688
882,000000	0,723069
881,000000	0,719320
880,000000	0,715761
879,000000	0,712663
878,000000	0,710189
877,000000	0,708487
876,000000	0,707674
875,000000	0,707659
874,000000	0,708042
873,000000	0,708384
872,000000	0,708620
871,000000	0,709065
870,000000	0,710050
869,000000	0,711595
868,000000	0,713402
867,000000	0,715054
866,000000	0,716218
865,000000	0,716789
864,000000	0,716867
863,000000	0,716581
862,000000	0,715999
861,000000	0,715333
860,000000	0,715052
859,000000	0,715496
858,000000	0,716381
857,000000	0,716971
856,000000	0,716848
855,000000	0,716291
854,000000	0,715830
853,000000	0,715604
852,000000	0,715354
851,000000	0,714896
850,000000	0,714351
849,000000	0,713945
848,000000	0,713762
847,000000	0,713741
846,000000	0,713800
845,000000	0,713890
844,000000	0,713967
843,000000	0,713974
842,000000	0,713888
841,000000	0,713762
840,000000	0,713636
839,000000	0,713346
838,000000	0,712550
837,000000	0,711013
836,000000	0,708845
835,000000	0,706345
834,000000	0,703632
833,000000	0,700567
832,000000	0,696925
831,000000	0,692512
830,000000	0,687213
829,000000	0,681217
828,000000	0,675253
827,000000	0,670340
826,000000	0,667114
825,000000	0,665533
824,000000	0,665367
823,000000	0,666682
822,000000	0,669648
821,000000	0,674011
820,000000	0,679027
819,000000	0,683878
818,000000	0,687876
817,000000	0,690486
816,000000	0,691574
815,000000	0,691759
814,000000	0,692065
813,000000	0,692969
812,000000	0,693927
811,000000	0,694033
810,000000	0,693002
809,000000	0,691283
808,000000	0,689445
807,000000	0,687693
806,000000	0,685939
805,000000	0,684093
804,000000	0,682268
803,000000	0,680807
802,000000	0,679999
801,000000	0,679636
800,000000	0,679046
799,000000	0,677826
798,000000	0,676416
797,000000	0,675631
796,000000	0,675693
795,000000	0,676082
794,000000	0,676296
793,000000	0,676404
792,000000	0,676761
791,000000	0,677569
790,000000	0,678846
789,000000	0,680533
788,000000	0,682389
787,000000	0,683954
786,000000	0,684826
785,000000	0,684947
784,000000	0,684601
783,000000	0,684189
782,000000	0,683958
781,000000	0,683773
780,000000	0,683206
779,000000	0,682054
778,000000	0,680719
777,000000	0,679785
776,000000	0,679303
775,000000	0,678856
774,000000	0,678288
773,000000	0,677905
772,000000	0,677863
771,000000	0,677800
770,000000	0,677281
769,000000	0,676253
768,000000	0,674890
767,000000	0,673361
766,000000	0,671961
765,000000	0,671116
764,000000	0,670976
763,000000	0,671200
762,000000	0,671304
761,000000	0,670995
760,000000	0,670159
759,000000	0,668882
758,000000	0,667588
757,000000	0,666759
756,000000	0,666393
755,000000	0,666089
754,000000	0,665702
753,000000	0,665399
752,000000	0,665002
751,000000	0,663948
750,000000	0,662177
749,000000	0,660422
748,000000	0,659277
747,000000	0,658500
746,000000	0,657620
745,000000	0,656654
744,000000	0,655778
743,000000	0,654832
742,000000	0,653644
741,000000	0,652394
740,000000	0,651184
739,000000	0,649741
738,000000	0,648044
737,000000	0,646768
736,000000	0,646507
735,000000	0,646913
734,000000	0,647080
733,000000	0,646474
732,000000	0,645106
731,000000	0,643233
730,000000	0,641331
729,000000	0,639914
728,000000	0,638948
727,000000	0,637841
726,000000	0,636230
725,000000	0,634039
724,000000	0,630526
723,000000	0,624512
722,000000	0,616587
721,000000	0,610074
720,000000	0,608371
719,000000	0,611480
718,000000	0,616195
717,000000	0,619423
716,000000	0,620308
715,000000	0,619585
714,000000	0,618211
713,000000	0,616897
712,000000	0,615906
711,000000	0,614827
710,000000	0,612966
709,000000	0,610115
708,000000	0,606617
707,000000	0,602873
706,000000	0,599208
705,000000	0,595981
704,000000	0,593263
703,000000	0,590573
702,000000	0,587282
701,000000	0,583104
700,000000	0,578026
699,000000	0,572230
698,000000	0,566378
697,000000	0,561317
696,000000	0,557065
695,000000	0,552720
694,000000	0,547628
693,000000	0,541778
692,000000	0,534838
691,000000	0,526145
690,000000	0,516405
689,000000	0,508060
688,000000	0,502888
687,000000	0,500307
686,000000	0,498876
685,000000	0,498092
684,000000	0,497605
683,000000	0,496288
682,000000	0,493639
681,000000	0,490893
680,000000	0,489272
679,000000	0,488473
678,000000	0,488042
677,000000	0,488536
676,000000	0,490050
675,000000	0,491746
674,000000	0,493222
673,000000	0,491738
672,000000	0,476272
671,000000	0,432823
670,000000	0,365407
669,000000	0,307466
668,000000	0,299461
667,000000	0,349466
666,000000	0,423305
665,000000	0,478147
664,000000	0,498461
663,000000	0,497047
662,000000	0,490399
661,000000	0,483933
660,000000	0,477465
659,000000	0,472252
658,000000	0,469277
657,000000	0,466899
656,000000	0,463826
655,000000	0,461192
654,000000	0,459992
653,000000	0,459105
652,000000	0,457334
651,000000	0,455223
650,000000	0,453819
649,000000	0,453523
648,000000	0,454769
647,000000	0,457907
646,000000	0,461787
645,000000	0,464304
644,000000	0,464872
643,000000	0,464867
642,000000	0,465262
641,000000	0,465622
640,000000	0,465636
639,000000	0,465814
638,000000	0,466057
637,000000	0,465374
636,000000	0,463697
635,000000	0,462468
634,000000	0,462668
633,000000	0,463556
632,000000	0,464000
631,000000	0,463701
630,000000	0,462559
629,000000	0,460179
628,000000	0,456867
627,000000	0,453918
626,000000	0,452086
625,000000	0,450667
624,000000	0,448825
623,000000	0,446796
622,000000	0,444844
621,000000	0,441973
620,000000	0,436907
619,000000	0,430204
618,000000	0,424385
617,000000	0,421795
616,000000	0,422623
615,000000	0,424925
614,000000	0,426360
613,000000	0,425864
612,000000	0,423794
611,000000	0,420753
610,000000	0,416794
609,000000	0,412042
608,000000	0,407447
607,000000	0,404162
606,000000	0,402340
605,000000	0,401058
604,000000	0,399305
603,000000	0,396566
602,000000	0,392890
601,000000	0,389040
600,000000	0,386265
599,000000	0,385148
598,000000	0,384832
597,000000	0,383915
596,000000	0,381832
595,000000	0,378789
594,000000	0,374960
593,000000	0,370774
592,000000	0,367518
591,000000	0,366331
590,000000	0,366521
589,000000	0,366042
588,000000	0,363747
587,000000	0,360351
586,000000	0,357045
585,000000	0,354058
584,000000	0,350891
583,000000	0,347208
582,000000	0,343219
581,000000	0,339497
580,000000	0,336418
579,000000	0,333556
578,000000	0,329999
577,000000	0,325788
576,000000	0,322408
575,000000	0,321029
574,000000	0,320815
573,000000	0,319903
572,000000	0,317660
571,000000	0,314779
570,000000	0,311624
569,000000	0,307964
568,000000	0,304283
567,000000	0,301837
566,000000	0,301022
565,000000	0,300810
564,000000	0,300048
563,000000	0,298386
562,000000	0,295777
561,000000	0,292291
560,000000	0,288673
559,000000	0,285979
558,000000	0,284180
557,000000	0,282139
556,000000	0,279311
555,000000	0,276431
554,000000	0,274166
553,000000	0,272135
552,000000	0,269887
551,000000	0,267801
550,000000	0,266286
549,000000	0,264855
548,000000	0,262799
547,000000	0,260237
546,000000	0,257824
545,000000	0,255884
544,000000	0,254325
543,000000	0,252997
542,000000	0,251716
541,000000	0,250279
540,000000	0,248723
539,000000	0,247216
538,000000	0,245579
537,000000	0,243476
536,000000	0,241155
535,000000	0,239332
534,000000	0,238128
533,000000	0,236894
532,000000	0,235313
531,000000	0,233772
530,000000	0,232228
529,000000	0,229626
528,000000	0,225309
527,000000	0,220404
526,000000	0,217019
525,000000	0,216173
524,000000	0,216990
523,000000	0,217616
522,000000	0,216434
521,000000	0,212836
520,000000	0,207558
519,000000	0,202354
518,000000	0,198986
517,000000	0,198265
516,000000	0,199810
515,000000	0,202364
514,000000	0,204434
513,000000	0,205140
512,000000	0,204651
511,000000	0,203573
510,000000	0,201993
509,000000	0,199798
508,000000	0,197662
507,000000	0,196678
506,000000	0,196614
505,000000	0,195693
504,000000	0,192886
503,000000	0,189646
502,000000	0,188414
501,000000	0,189734
500,000000	0,191830
499,000000	0,192824
498,000000	0,192393
497,000000	0,191205
496,000000	0,189561
495,000000	0,187242
494,000000	0,184362
493,000000	0,181755
492,000000	0,180325
491,000000	0,180100
490,000000	0,180134
489,000000	0,179325
488,000000	0,177226
487,000000	0,174092
486,000000	0,170513
485,000000	0,167293
484,000000	0,165351
483,000000	0,165066
482,000000	0,165607
481,000000	0,165413
480,000000	0,163578
479,000000	0,160595
478,000000	0,157592
477,000000	0,154986
476,000000	0,152046
475,000000	0,147840
474,000000	0,142701
473,000000	0,138677
472,000000	0,137874
471,000000	0,140130
470,000000	0,142846
469,000000	0,143652
468,000000	0,142820
467,000000	0,142113
466,000000	0,141939
465,000000	0,141024
464,000000	0,138797
463,000000	0,136408
462,000000	0,134641
461,000000	0,132264
460,000000	0,127815
459,000000	0,122448
458,000000	0,119500
457,000000	0,120956
456,000000	0,125263
455,000000	0,128924
454,000000	0,129881
453,000000	0,128873
452,000000	0,127769
451,000000	0,127245
450,000000	0,126421
449,000000	0,124533
448,000000	0,122137
447,000000	0,120281
446,000000	0,119079
445,000000	0,117802
444,000000	0,116228
443,000000	0,115072
442,000000	0,114931
441,000000	0,115359
440,000000	0,115242
439,000000	0,113794
438,000000	0,111111
437,000000	0,108096
436,000000	0,105861
435,000000	0,104762
434,000000	0,103987
433,000000	0,102496
432,000000	0,100316
431,000000	0,098410
430,000000	0,097260
429,000000	0,096193
428,000000	0,094196
427,000000	0,090855
426,000000	0,086536
425,000000	0,082102
424,000000	0,078375
423,000000	0,075172
422,000000	0,071014
421,000000	0,064853
420,000000	0,058330
419,000000	0,055120
418,000000	0,057284
417,000000	0,062850
416,000000	0,067771
415,000000	0,069654
414,000000	0,068887
413,000000	0,066995
412,000000	0,064961
411,000000	0,062917
410,000000	0,060634
409,000000	0,058034
408,000000	0,055512
407,000000	0,053662
406,000000	0,052563
405,000000	0,051622
404,000000	0,050251
403,000000	0,048316
402,000000	0,045637
401,000000	0,041695
400,000000	0,036433
399,000000	0,031043
398,000000	0,027246
397,000000	0,025832
396,000000	0,026292
395,000000	0,027651
394,000000	0,029135
393,000000	0,030141
392,000000	0,030288
391,000000	0,029705
390,000000	0,028871
389,000000	0,028051
388,000000	0,027099
387,000000	0,025758
386,000000	0,024096
385,000000	0,022578
384,000000	0,021662
383,000000	0,021364
382,000000	0,021369
381,000000	0,021412
380,000000	0,021192
379,000000	0,020116
378,000000	0,017654
377,000000	0,014156
376,000000	0,010931
375,000000	0,009211
374,000000	0,009022
373,000000	0,009197
372,000000	0,009009
371,000000	0,008778
370,000000	0,008853
369,000000	0,008977
368,000000	0,008843
367,000000	0,008597
366,000000	0,008386
365,000000	0,007989
364,000000	0,007296
363,000000	0,006699
362,000000	0,006590
361,000000	0,006709
360,000000	0,006484
359,000000	0,005736
358,000000	0,004649
357,000000	0,003398
356,000000	0,002183
355,000000	0,001193
354,000000	0,000413
353,000000	0,000168
352,000000	0,000567
351,000000	0,001035
350,000000	0,001372
349,000000	0,001241
348,000000	0,000806
347,000000	0,000263
346,000000	0,000476
345,000000	0,000980
344,000000	0,000799
343,000000	0,000187
342,000000	0,000360
341,000000	0,000999
340,000000	0,001667
339,000000	0,002043
338,000000	0,001963
337,000000	0,001265
336,000000	0,000363
335,000000	0,001747
334,000000	0,002978
333,000000	0,003401
332,000000	0,002906
331,000000	0,001908
330,000000	0,001549
329,000000	0,002323
328,000000	0,002583
327,000000	0,001939
326,000000	0,001015
325,000000	0,000758
324,000000	0,001190
323,000000	0,001827
322,000000	0,002042
321,000000	0,001490
320,000000	0,000752
319,000000	0,000897
318,000000	0,001431
317,000000	0,001916
316,000000	0,002016
315,000000	0,001756
314,000000	0,001437
313,000000	0,001087
312,000000	0,000820
311,000000	0,000768
310,000000	0,000656
309,000000	0,000515
308,000000	0,001055
307,000000	0,001584
306,000000	0,001666
305,000000	0,001325
304,000000	0,000986
303,000000	0,002463
302,000000	0,003764
301,000000	0,003926
300,000000	0,003615
299,000000	0,003540
298,000000	0,003172
297,000000	0,002233
296,000000	0,001032
295,000000	0,000263
294,000000	0,001042
293,000000	0,001553
292,000000	0,001449
291,000000	0,000695
290,000000	0,000572
289,000000	0,001336
288,000000	0,001816
287,000000	0,002653
286,000000	0,003453
285,000000	0,003384
284,000000	0,002268
283,000000	0,000524
282,000000	0,001052
281,000000	0,001675
280,000000	0,001560
279,000000	0,001346
278,000000	0,001882
277,000000	0,002475
276,000000	0,002264
275,000000	0,001436
274,000000	0,001100
273,000000	0,001545
272,000000	0,001796
271,000000	0,001865
270,000000	0,002026
269,000000	0,001822
268,000000	0,001269
267,000000	0,001528
266,000000	0,002056
265,000000	0,002414
264,000000	0,002711
263,000000	0,002747
262,000000	0,002432
261,000000	0,002094
260,000000	0,001989
259,000000	0,001985
258,000000	0,001966
257,000000	0,001784
256,000000	0,001140
255,000000	0,000719
254,000000	0,002073
253,000000	0,003330
252,000000	0,003694
251,000000	0,003077
250,000000	0,001883
249,000000	0,000734
248,000000	0,000309
247,000000	0,000643
246,000000	0,000617
245,000000	0,000505
244,000000	0,001064
243,000000	0,001750
242,000000	0,002577
241,000000	0,003431
240,000000	0,003721
239,000000	0,003316
238,000000	0,002632
237,000000	0,002095
236,000000	0,001903
235,000000	0,001829
234,000000	0,001580
233,000000	0,001140
232,000000	0,000525
231,000000	0,000755
230,000000	0,001534
229,000000	0,001940
228,000000	0,001878
227,000000	0,001431
226,000000	0,001060
225,000000	0,001628
224,000000	0,001936
223,000000	0,001642
222,000000	0,001221
221,000000	0,001039
220,000000	0,000994
219,000000	0,000835
218,000000	0,000531
217,000000	0,000332
216,000000	0,000363
215,000000	0,000207
214,000000	0,000377
213,000000	0,000938
212,000000	0,001032
211,000000	0,000616
210,000000	0,000253
209,000000	0,001288
208,000000	0,002076
207,000000	0,002543
206,000000	0,002716
205,000000	0,002659
204,000000	0,002344
203,000000	0,001663
202,000000	0,001227
201,000000	0,001963
200,000000	0,002416
