PE IR       SUBTECH     SPECTRUM    ASCII       PEDS        4.00        
   -1
ZnO thin film reflectivity.ASC
25/04/22
10:36:25.00
25/04/22
10:36:25.00
Praktikum
Sample 027 By Praktikum date Dienstag, April 22 2025
200,000000
#HDR
-1
-1
#GR
cm-1
EGY
1.0
0.0
4000,000000
-1,000000
3801
8
2,363308
0,000159
#DATA
4000,000000	0,262428
3999,000000	0,263207
3998,000000	0,264089
3997,000000	0,264435
3996,000000	0,264207
3995,000000	0,263896
3994,000000	0,263936
3993,000000	0,264272
3992,000000	0,264486
3991,000000	0,264236
3990,000000	0,263526
3989,000000	0,262683
3988,000000	0,262148
3987,000000	0,262190
3986,000000	0,262674
3985,000000	0,263113
3984,000000	0,263054
3983,000000	0,262462
3982,000000	0,261679
3981,000000	0,261051
3980,000000	0,260657
3979,000000	0,260393
3978,000000	0,260152
3977,000000	0,259863
3976,000000	0,259502
3975,000000	0,259169
3974,000000	0,259035
3973,000000	0,259083
3972,000000	0,258991
3971,000000	0,258514
3970,000000	0,257951
3969,000000	0,257979
3968,000000	0,258897
3967,000000	0,260213
3966,000000	0,261127
3965,000000	0,261310
3964,000000	0,261122
3963,000000	0,261072
3962,000000	0,261267
3961,000000	0,261457
3960,000000	0,261496
3959,000000	0,261599
3958,000000	0,262072
3957,000000	0,262825
3956,000000	0,263239
3955,000000	0,262619
3954,000000	0,260823
3953,000000	0,258405
3952,000000	0,256138
3951,000000	0,254457
3950,000000	0,253329
3949,000000	0,252511
3948,000000	0,251774
3947,000000	0,250921
3946,000000	0,249849
3945,000000	0,248755
3944,000000	0,248156
3943,000000	0,248516
3942,000000	0,249787
3941,000000	0,251455
3940,000000	0,253044
3939,000000	0,254403
3938,000000	0,255411
3937,000000	0,255584
3936,000000	0,254326
3935,000000	0,251644
3934,000000	0,248409
3933,000000	0,245766
3932,000000	0,244318
3931,000000	0,243955
3930,000000	0,244253
3929,000000	0,244815
3928,000000	0,245356
3927,000000	0,245752
3926,000000	0,246112
3925,000000	0,246601
3924,000000	0,247021
3923,000000	0,246732
3922,000000	0,245170
3921,000000	0,242450
3920,000000	0,239403
3919,000000	0,237065
3918,000000	0,236141
3917,000000	0,236792
3916,000000	0,238722
3915,000000	0,241405
3914,000000	0,244323
3913,000000	0,247168
3912,000000	0,249811
3911,000000	0,252050
3910,000000	0,253316
3909,000000	0,252627
3908,000000	0,249053
3907,000000	0,242515
3906,000000	0,234224
3905,000000	0,226039
3904,000000	0,219151
3903,000000	0,213537
3902,000000	0,208877
3901,000000	0,205822
3900,000000	0,205881
3899,000000	0,209811
3898,000000	0,216375
3897,000000	0,222891
3896,000000	0,227043
3895,000000	0,228180
3894,000000	0,227347
3893,000000	0,226507
3892,000000	0,227279
3891,000000	0,229660
3890,000000	0,231729
3889,000000	0,231239
3888,000000	0,227757
3887,000000	0,223191
3886,000000	0,219877
3885,000000	0,218317
3884,000000	0,217187
3883,000000	0,215445
3882,000000	0,213857
3881,000000	0,214179
3880,000000	0,217085
3879,000000	0,221224
3878,000000	0,224440
3877,000000	0,225719
3876,000000	0,225728
3875,000000	0,225338
3874,000000	0,224047
3873,000000	0,220552
3872,000000	0,214943
3871,000000	0,209545
3870,000000	0,206825
3869,000000	0,206715
3868,000000	0,206856
3867,000000	0,205569
3866,000000	0,203895
3865,000000	0,204269
3864,000000	0,207714
3863,000000	0,212979
3862,000000	0,218024
3861,000000	0,221647
3860,000000	0,223473
3859,000000	0,222937
3858,000000	0,218958
3857,000000	0,210848
3856,000000	0,199656
3855,000000	0,188421
3854,000000	0,180664
3853,000000	0,178254
3852,000000	0,180553
3851,000000	0,185516
3850,000000	0,191495
3849,000000	0,197933
3848,000000	0,204739
3847,000000	0,211522
3846,000000	0,217463
3845,000000	0,221575
3844,000000	0,222948
3843,000000	0,220980
3842,000000	0,215732
3841,000000	0,208258
3840,000000	0,200514
3839,000000	0,194635
3838,000000	0,191882
3837,000000	0,191970
3836,000000	0,193558
3835,000000	0,195627
3834,000000	0,198389
3833,000000	0,202744
3832,000000	0,208864
3831,000000	0,215538
3830,000000	0,221021
3829,000000	0,224477
3828,000000	0,226362
3827,000000	0,227335
3826,000000	0,226970
3825,000000	0,223958
3824,000000	0,217904
3823,000000	0,210633
3822,000000	0,204949
3821,000000	0,201953
3820,000000	0,200063
3819,000000	0,197271
3818,000000	0,193951
3817,000000	0,192787
3816,000000	0,195937
3815,000000	0,202803
3814,000000	0,210871
3813,000000	0,217955
3812,000000	0,223231
3811,000000	0,226566
3810,000000	0,227843
3809,000000	0,227260
3808,000000	0,225584
3807,000000	0,223356
3806,000000	0,219931
3805,000000	0,214187
3804,000000	0,206551
3803,000000	0,199801
3802,000000	0,197005
3801,000000	0,198532
3800,000000	0,201761
3799,000000	0,203986
3798,000000	0,205260
3797,000000	0,207880
3796,000000	0,213517
3795,000000	0,221352
3794,000000	0,229021
3793,000000	0,234793
3792,000000	0,238587
3791,000000	0,241305
3790,000000	0,243554
3789,000000	0,245085
3788,000000	0,245269
3787,000000	0,244072
3786,000000	0,242311
3785,000000	0,240886
3784,000000	0,239780
3783,000000	0,238166
3782,000000	0,235584
3781,000000	0,232803
3780,000000	0,231312
3779,000000	0,231935
3778,000000	0,234109
3777,000000	0,236515
3776,000000	0,238212
3775,000000	0,239020
3774,000000	0,238968
3773,000000	0,237839
3772,000000	0,235539
3771,000000	0,232497
3770,000000	0,229283
3769,000000	0,225964
3768,000000	0,222426
3767,000000	0,219347
3766,000000	0,218087
3765,000000	0,219225
3764,000000	0,221591
3763,000000	0,223295
3762,000000	0,223447
3761,000000	0,222476
3760,000000	0,221115
3759,000000	0,219667
3758,000000	0,218084
3757,000000	0,216052
3756,000000	0,212791
3755,000000	0,207324
3754,000000	0,199456
3753,000000	0,190403
3752,000000	0,182279
3751,000000	0,176758
3750,000000	0,173842
3749,000000	0,171652
3748,000000	0,167840
3747,000000	0,161998
3746,000000	0,156691
3745,000000	0,155509
3744,000000	0,159743
3743,000000	0,167154
3742,000000	0,173981
3741,000000	0,177781
3740,000000	0,178375
3739,000000	0,176892
3738,000000	0,174618
3737,000000	0,172408
3736,000000	0,170520
3735,000000	0,168867
3734,000000	0,167688
3733,000000	0,167848
3732,000000	0,170107
3731,000000	0,174152
3730,000000	0,178659
3729,000000	0,182387
3728,000000	0,184990
3727,000000	0,186796
3726,000000	0,188166
3725,000000	0,189296
3724,000000	0,190448
3723,000000	0,192046
3722,000000	0,194390
3721,000000	0,197354
3720,000000	0,200419
3719,000000	0,202920
3718,000000	0,204218
3717,000000	0,203732
3716,000000	0,201089
3715,000000	0,196473
3714,000000	0,190772
3713,000000	0,185173
3712,000000	0,180507
3711,000000	0,177003
3710,000000	0,174659
3709,000000	0,173634
3708,000000	0,174132
3707,000000	0,175954
3706,000000	0,178271
3705,000000	0,180017
3704,000000	0,180658
3703,000000	0,180622
3702,000000	0,180851
3701,000000	0,181850
3700,000000	0,183299
3699,000000	0,184617
3698,000000	0,185588
3697,000000	0,186109
3696,000000	0,185557
3695,000000	0,182896
3694,000000	0,177582
3693,000000	0,170112
3692,000000	0,161701
3691,000000	0,153795
3690,000000	0,147839
3689,000000	0,144993
3688,000000	0,145546
3687,000000	0,148658
3686,000000	0,152926
3685,000000	0,157138
3684,000000	0,160534
3683,000000	0,162623
3682,000000	0,163033
3681,000000	0,161345
3680,000000	0,156974
3679,000000	0,149582
3678,000000	0,140123
3677,000000	0,131111
3676,000000	0,125115
3675,000000	0,122539
3674,000000	0,121339
3673,000000	0,119321
3672,000000	0,116517
3671,000000	0,115029
3670,000000	0,116695
3669,000000	0,121292
3668,000000	0,126934
3667,000000	0,131818
3666,000000	0,135312
3665,000000	0,137783
3664,000000	0,139840
3663,000000	0,141741
3662,000000	0,143079
3661,000000	0,142875
3660,000000	0,140285
3659,000000	0,135528
3658,000000	0,130146
3657,000000	0,125955
3656,000000	0,123493
3655,000000	0,121516
3654,000000	0,118080
3653,000000	0,112249
3652,000000	0,104810
3651,000000	0,097671
3650,000000	0,092772
3649,000000	0,091345
3648,000000	0,093693
3647,000000	0,099059
3646,000000	0,105715
3645,000000	0,111649
3644,000000	0,115649
3643,000000	0,117757
3642,000000	0,118698
3641,000000	0,119015
3640,000000	0,118831
3639,000000	0,118186
3638,000000	0,117224
3637,000000	0,116077
3636,000000	0,114785
3635,000000	0,113244
3634,000000	0,110875
3633,000000	0,106611
3632,000000	0,099932
3631,000000	0,092277
3630,000000	0,086799
3629,000000	0,086075
3628,000000	0,089909
3627,000000	0,095671
3626,000000	0,100552
3625,000000	0,103274
3624,000000	0,103915
3623,000000	0,103004
3622,000000	0,101115
3621,000000	0,098945
3620,000000	0,097259
3619,000000	0,096501
3618,000000	0,096541
3617,000000	0,096872
3616,000000	0,097035
3615,000000	0,096935
3614,000000	0,096736
3613,000000	0,096426
3612,000000	0,095685
3611,000000	0,094365
3610,000000	0,093015
3609,000000	0,092739
3608,000000	0,094406
3607,000000	0,097979
3606,000000	0,102473
3605,000000	0,106502
3604,000000	0,108990
3603,000000	0,109693
3602,000000	0,109190
3601,000000	0,108302
3600,000000	0,107382
3599,000000	0,106214
3598,000000	0,104547
3597,000000	0,102669
3596,000000	0,101443
3595,000000	0,101707
3594,000000	0,103476
3593,000000	0,105597
3592,000000	0,106348
3591,000000	0,104703
3590,000000	0,101240
3589,000000	0,097798
3588,000000	0,096217
3587,000000	0,097249
3586,000000	0,100359
3585,000000	0,104215
3584,000000	0,107499
3583,000000	0,109636
3582,000000	0,110972
3581,000000	0,112237
3580,000000	0,113801
3579,000000	0,115424
3578,000000	0,116550
3577,000000	0,116743
3576,000000	0,115951
3575,000000	0,114551
3574,000000	0,113119
3573,000000	0,111874
3572,000000	0,110346
3571,000000	0,107864
3570,000000	0,104484
3569,000000	0,101243
3568,000000	0,099396
3567,000000	0,099544
3566,000000	0,101445
3565,000000	0,104414
3564,000000	0,107628
3563,000000	0,110272
3562,000000	0,111844
3561,000000	0,112485
3560,000000	0,112843
3559,000000	0,113440
3558,000000	0,114163
3557,000000	0,114425
3556,000000	0,113805
3555,000000	0,112440
3554,000000	0,110860
3553,000000	0,109580
3552,000000	0,108861
3551,000000	0,108651
3550,000000	0,108567
3549,000000	0,108130
3548,000000	0,107232
3547,000000	0,106405
3546,000000	0,106474
3545,000000	0,107801
3544,000000	0,109991
3543,000000	0,112308
3542,000000	0,114215
3541,000000	0,115463
3540,000000	0,115928
3539,000000	0,115581
3538,000000	0,114660
3537,000000	0,113700
3536,000000	0,113287
3535,000000	0,113643
3534,000000	0,114374
3533,000000	0,114678
3532,000000	0,113990
3531,000000	0,112536
3530,000000	0,111176
3529,000000	0,110639
3528,000000	0,110946
3527,000000	0,111522
3526,000000	0,111747
3525,000000	0,111437
3524,000000	0,110956
3523,000000	0,110892
3522,000000	0,111478
3521,000000	0,112328
3520,000000	0,112906
3519,000000	0,113236
3518,000000	0,113903
3517,000000	0,115237
3516,000000	0,116794
3515,000000	0,117789
3514,000000	0,117870
3513,000000	0,117311
3512,000000	0,116640
3511,000000	0,116269
3510,000000	0,116323
3509,000000	0,116566
3508,000000	0,116534
3507,000000	0,115912
3506,000000	0,114772
3505,000000	0,113458
3504,000000	0,112359
3503,000000	0,111820
3502,000000	0,112052
3501,000000	0,112898
3500,000000	0,113839
3499,000000	0,114444
3498,000000	0,114789
3497,000000	0,115281
3496,000000	0,116157
3495,000000	0,117271
3494,000000	0,118241
3493,000000	0,118663
3492,000000	0,118297
3491,000000	0,117235
3490,000000	0,115904
3489,000000	0,114759
3488,000000	0,113974
3487,000000	0,113488
3486,000000	0,113245
3485,000000	0,113244
3484,000000	0,113468
3483,000000	0,113928
3482,000000	0,114702
3481,000000	0,115782
3480,000000	0,116901
3479,000000	0,117652
3478,000000	0,117854
3477,000000	0,117710
3476,000000	0,117581
3475,000000	0,117662
3474,000000	0,117835
3473,000000	0,117839
3472,000000	0,117612
3471,000000	0,117394
3470,000000	0,117356
3469,000000	0,117270
3468,000000	0,116789
3467,000000	0,116016
3466,000000	0,115489
3465,000000	0,115529
3464,000000	0,115910
3463,000000	0,116302
3462,000000	0,116660
3461,000000	0,116984
3460,000000	0,117019
3459,000000	0,116628
3458,000000	0,116250
3457,000000	0,116545
3456,000000	0,117609
3455,000000	0,118826
3454,000000	0,119480
3453,000000	0,119278
3452,000000	0,118319
3451,000000	0,116864
3450,000000	0,115233
3449,000000	0,113724
3448,000000	0,112511
3447,000000	0,111645
3446,000000	0,111131
3445,000000	0,110944
3444,000000	0,111025
3443,000000	0,111372
3442,000000	0,112027
3441,000000	0,112849
3440,000000	0,113488
3439,000000	0,113809
3438,000000	0,114203
3437,000000	0,115237
3436,000000	0,116982
3435,000000	0,118936
3434,000000	0,120538
3433,000000	0,121510
3432,000000	0,121776
3431,000000	0,121411
3430,000000	0,120837
3429,000000	0,120803
3428,000000	0,121852
3427,000000	0,123842
3426,000000	0,126063
3425,000000	0,127770
3424,000000	0,128549
3423,000000	0,128307
3422,000000	0,127192
3421,000000	0,125679
3420,000000	0,124608
3419,000000	0,124790
3418,000000	0,126362
3417,000000	0,128596
3416,000000	0,130475
3415,000000	0,131489
3414,000000	0,131828
3413,000000	0,132013
3412,000000	0,132548
3411,000000	0,133730
3410,000000	0,135408
3409,000000	0,136893
3408,000000	0,137460
3407,000000	0,137013
3406,000000	0,136024
3405,000000	0,134887
3404,000000	0,133722
3403,000000	0,132848
3402,000000	0,132900
3401,000000	0,134143
3400,000000	0,136009
3399,000000	0,137650
3398,000000	0,138695
3397,000000	0,139217
3396,000000	0,139226
3395,000000	0,138678
3394,000000	0,137863
3393,000000	0,137348
3392,000000	0,137537
3391,000000	0,138376
3390,000000	0,139456
3389,000000	0,140257
3388,000000	0,140444
3387,000000	0,140188
3386,000000	0,140096
3385,000000	0,140589
3384,000000	0,141467
3383,000000	0,142234
3382,000000	0,142662
3381,000000	0,142846
3380,000000	0,142926
3379,000000	0,143019
3378,000000	0,143269
3377,000000	0,143655
3376,000000	0,143897
3375,000000	0,143806
3374,000000	0,143542
3373,000000	0,143340
3372,000000	0,143172
3371,000000	0,142991
3370,000000	0,143092
3369,000000	0,143717
3368,000000	0,144516
3367,000000	0,144914
3366,000000	0,144962
3365,000000	0,145290
3364,000000	0,146128
3363,000000	0,146875
3362,000000	0,146869
3361,000000	0,146178
3360,000000	0,145397
3359,000000	0,144951
3358,000000	0,144917
3357,000000	0,145294
3356,000000	0,146049
3355,000000	0,146932
3354,000000	0,147544
3353,000000	0,147708
3352,000000	0,147670
3351,000000	0,147852
3350,000000	0,148434
3349,000000	0,149183
3348,000000	0,149684
3347,000000	0,149744
3346,000000	0,149559
3345,000000	0,149536
3344,000000	0,149973
3343,000000	0,150860
3342,000000	0,151895
3341,000000	0,152672
3340,000000	0,152987
3339,000000	0,153001
3338,000000	0,153057
3337,000000	0,153341
3336,000000	0,153851
3335,000000	0,154669
3334,000000	0,155955
3333,000000	0,157533
3332,000000	0,158771
3331,000000	0,159098
3330,000000	0,158556
3329,000000	0,157656
3328,000000	0,156809
3327,000000	0,156126
3326,000000	0,155621
3325,000000	0,155320
3324,000000	0,155174
3323,000000	0,155103
3322,000000	0,155171
3321,000000	0,155596
3320,000000	0,156565
3319,000000	0,158084
3318,000000	0,159952
3317,000000	0,161723
3316,000000	0,162822
3315,000000	0,162919
3314,000000	0,162214
3313,000000	0,161297
3312,000000	0,160722
3311,000000	0,160724
3310,000000	0,161187
3309,000000	0,161701
3308,000000	0,161771
3307,000000	0,161233
3306,000000	0,160537
3305,000000	0,160445
3304,000000	0,161344
3303,000000	0,162918
3302,000000	0,164493
3301,000000	0,165614
3300,000000	0,166278
3299,000000	0,166687
3298,000000	0,166894
3297,000000	0,166760
3296,000000	0,166246
3295,000000	0,165614
3294,000000	0,165245
3293,000000	0,165261
3292,000000	0,165464
3291,000000	0,165673
3290,000000	0,165972
3289,000000	0,166514
3288,000000	0,167230
3287,000000	0,167817
3286,000000	0,168022
3285,000000	0,167908
3284,000000	0,167874
3283,000000	0,168402
3282,000000	0,169668
3281,000000	0,171314
3280,000000	0,172656
3279,000000	0,173172
3278,000000	0,172803
3277,000000	0,171902
3276,000000	0,171018
3275,000000	0,170618
3274,000000	0,170790
3273,000000	0,171200
3272,000000	0,171511
3271,000000	0,171792
3270,000000	0,172319
3269,000000	0,173069
3268,000000	0,173733
3267,000000	0,174225
3266,000000	0,174772
3265,000000	0,175447
3264,000000	0,175997
3263,000000	0,176343
3262,000000	0,176870
3261,000000	0,177907
3260,000000	0,179161
3259,000000	0,179914
3258,000000	0,179642
3257,000000	0,178300
3256,000000	0,176343
3255,000000	0,174676
3254,000000	0,174284
3253,000000	0,175456
3252,000000	0,177473
3251,000000	0,179299
3250,000000	0,180463
3249,000000	0,181037
3248,000000	0,181010
3247,000000	0,180166
3246,000000	0,178659
3245,000000	0,177369
3244,000000	0,177395
3243,000000	0,179152
3242,000000	0,181965
3241,000000	0,184432
3240,000000	0,185333
3239,000000	0,184445
3238,000000	0,182600
3237,000000	0,180953
3236,000000	0,180138
3235,000000	0,180035
3234,000000	0,180198
3233,000000	0,180384
3232,000000	0,180727
3231,000000	0,181517
3230,000000	0,182806
3229,000000	0,184273
3228,000000	0,185580
3227,000000	0,186772
3226,000000	0,188106
3225,000000	0,189456
3224,000000	0,190215
3223,000000	0,189938
3222,000000	0,188921
3221,000000	0,187933
3220,000000	0,187535
3219,000000	0,187798
3218,000000	0,188514
3217,000000	0,189475
3216,000000	0,190529
3215,000000	0,191540
3214,000000	0,192374
3213,000000	0,192948
3212,000000	0,193332
3211,000000	0,193751
3210,000000	0,194341
3209,000000	0,194935
3208,000000	0,195248
3207,000000	0,195254
3206,000000	0,195214
3205,000000	0,195331
3204,000000	0,195556
3203,000000	0,195747
3202,000000	0,195848
3201,000000	0,195910
3200,000000	0,196136
3199,000000	0,196873
3198,000000	0,198325
3197,000000	0,200251
3196,000000	0,202166
3195,000000	0,203818
3194,000000	0,205211
3193,000000	0,206228
3192,000000	0,206597
3191,000000	0,206301
3190,000000	0,205663
3189,000000	0,204970
3188,000000	0,204341
3187,000000	0,204012
3186,000000	0,204315
3185,000000	0,205214
3184,000000	0,206264
3183,000000	0,207201
3182,000000	0,208145
3181,000000	0,209060
3180,000000	0,209503
3179,000000	0,209269
3178,000000	0,208917
3177,000000	0,209173
3176,000000	0,210076
3175,000000	0,211103
3174,000000	0,211924
3173,000000	0,212657
3172,000000	0,213476
3171,000000	0,214417
3170,000000	0,215522
3169,000000	0,216821
3168,000000	0,218073
3167,000000	0,218802
3166,000000	0,218755
3165,000000	0,218253
3164,000000	0,217980
3163,000000	0,218388
3162,000000	0,219292
3161,000000	0,220091
3160,000000	0,220386
3159,000000	0,220351
3158,000000	0,220475
3157,000000	0,221105
3156,000000	0,222324
3155,000000	0,224031
3154,000000	0,225879
3153,000000	0,227341
3152,000000	0,228206
3151,000000	0,228841
3150,000000	0,229646
3149,000000	0,230415
3148,000000	0,230766
3147,000000	0,231009
3146,000000	0,231909
3145,000000	0,233555
3144,000000	0,235122
3143,000000	0,235927
3142,000000	0,236105
3141,000000	0,236052
3140,000000	0,235850
3139,000000	0,235639
3138,000000	0,235917
3137,000000	0,236958
3136,000000	0,238305
3135,000000	0,239321
3134,000000	0,239936
3133,000000	0,240442
3132,000000	0,240881
3131,000000	0,241115
3130,000000	0,241269
3129,000000	0,241620
3128,000000	0,242180
3127,000000	0,242806
3126,000000	0,243580
3125,000000	0,244737
3124,000000	0,246280
3123,000000	0,247957
3122,000000	0,249523
3121,000000	0,250813
3120,000000	0,251692
3119,000000	0,252192
3118,000000	0,252555
3117,000000	0,252903
3116,000000	0,253048
3115,000000	0,252849
3114,000000	0,252572
3113,000000	0,252640
3112,000000	0,253197
3111,000000	0,254113
3110,000000	0,255239
3109,000000	0,256422
3108,000000	0,257436
3107,000000	0,258173
3106,000000	0,258750
3105,000000	0,259262
3104,000000	0,259558
3103,000000	0,259437
3102,000000	0,258910
3101,000000	0,258168
3100,000000	0,257563
3099,000000	0,257701
3098,000000	0,259154
3097,000000	0,261791
3096,000000	0,264656
3095,000000	0,266827
3094,000000	0,268187
3093,000000	0,269123
3092,000000	0,269835
3091,000000	0,270323
3090,000000	0,270798
3089,000000	0,271587
3088,000000	0,272671
3087,000000	0,273651
3086,000000	0,274179
3085,000000	0,274170
3084,000000	0,273737
3083,000000	0,273242
3082,000000	0,273316
3081,000000	0,274441
3080,000000	0,276425
3079,000000	0,278506
3078,000000	0,280065
3077,000000	0,281106
3076,000000	0,282020
3075,000000	0,283064
3074,000000	0,284140
3073,000000	0,285032
3072,000000	0,285752
3071,000000	0,286513
3070,000000	0,287305
3069,000000	0,287677
3068,000000	0,287252
3067,000000	0,286426
3066,000000	0,286214
3065,000000	0,287274
3064,000000	0,289272
3063,000000	0,291304
3062,000000	0,292717
3061,000000	0,293474
3060,000000	0,293968
3059,000000	0,294690
3058,000000	0,295922
3057,000000	0,297610
3056,000000	0,299584
3055,000000	0,301793
3054,000000	0,304092
3053,000000	0,305936
3052,000000	0,306656
3051,000000	0,306166
3050,000000	0,305130
3049,000000	0,304392
3048,000000	0,304517
3047,000000	0,305795
3046,000000	0,308179
3045,000000	0,311081
3044,000000	0,313607
3043,000000	0,315254
3042,000000	0,316190
3041,000000	0,316840
3040,000000	0,317525
3039,000000	0,318481
3038,000000	0,319775
3037,000000	0,321057
3036,000000	0,321750
3035,000000	0,321670
3034,000000	0,321192
3033,000000	0,320816
3032,000000	0,320925
3031,000000	0,321905
3030,000000	0,323889
3029,000000	0,326248
3028,000000	0,327925
3027,000000	0,328551
3026,000000	0,328799
3025,000000	0,329422
3024,000000	0,330456
3023,000000	0,331571
3022,000000	0,332651
3021,000000	0,333636
3020,000000	0,334286
3019,000000	0,334509
3018,000000	0,334635
3017,000000	0,335038
3016,000000	0,335799
3015,000000	0,336953
3014,000000	0,338657
3013,000000	0,340826
3012,000000	0,343013
3011,000000	0,344963
3010,000000	0,346898
3009,000000	0,348957
3008,000000	0,350785
3007,000000	0,352050
3006,000000	0,353013
3005,000000	0,354199
3004,000000	0,355835
3003,000000	0,357940
3002,000000	0,360542
3001,000000	0,363365
3000,000000	0,365642
2999,000000	0,366760
2998,000000	0,366967
2997,000000	0,367109
2996,000000	0,367771
2995,000000	0,368933
2994,000000	0,370176
2993,000000	0,370986
2992,000000	0,371101
2991,000000	0,370899
2990,000000	0,371243
2989,000000	0,372666
2988,000000	0,374859
2987,000000	0,377069
2986,000000	0,378711
2985,000000	0,379539
2984,000000	0,379631
2983,000000	0,379452
2982,000000	0,379515
2981,000000	0,379753
2980,000000	0,379644
2979,000000	0,379170
2978,000000	0,379196
2977,000000	0,380527
2976,000000	0,383001
2975,000000	0,385849
2974,000000	0,388544
2973,000000	0,390927
2972,000000	0,392861
2971,000000	0,394215
2970,000000	0,394971
2969,000000	0,395110
2968,000000	0,394640
2967,000000	0,393949
2966,000000	0,393666
2965,000000	0,393888
2964,000000	0,394005
2963,000000	0,393675
2962,000000	0,393492
2961,000000	0,394255
2960,000000	0,395948
2959,000000	0,397909
2958,000000	0,399655
2957,000000	0,401076
2956,000000	0,402166
2955,000000	0,403068
2954,000000	0,404108
2953,000000	0,405330
2952,000000	0,406245
2951,000000	0,406519
2950,000000	0,406625
2949,000000	0,407305
2948,000000	0,408581
2947,000000	0,409790
2946,000000	0,410457
2945,000000	0,410673
2944,000000	0,410750
2943,000000	0,410908
2942,000000	0,411282
2941,000000	0,411871
2940,000000	0,412507
2939,000000	0,413041
2938,000000	0,413415
2937,000000	0,413433
2936,000000	0,412812
2935,000000	0,411721
2934,000000	0,410925
2933,000000	0,411031
2932,000000	0,411796
2931,000000	0,412492
2930,000000	0,412703
2929,000000	0,412469
2928,000000	0,411950
2927,000000	0,411358
2926,000000	0,411006
2925,000000	0,411063
2924,000000	0,411356
2923,000000	0,411670
2922,000000	0,412011
2921,000000	0,412340
2920,000000	0,412296
2919,000000	0,411551
2918,000000	0,410281
2917,000000	0,409050
2916,000000	0,408347
2915,000000	0,408342
2914,000000	0,408843
2913,000000	0,409338
2912,000000	0,409408
2911,000000	0,409287
2910,000000	0,409723
2909,000000	0,411120
2908,000000	0,413172
2907,000000	0,415458
2906,000000	0,417941
2905,000000	0,420670
2904,000000	0,423519
2903,000000	0,426563
2902,000000	0,430245
2901,000000	0,434738
2900,000000	0,439497
2899,000000	0,443773
2898,000000	0,447280
2897,000000	0,450073
2896,000000	0,452248
2895,000000	0,454078
2894,000000	0,456005
2893,000000	0,458112
2892,000000	0,459971
2891,000000	0,461404
2890,000000	0,462967
2889,000000	0,465273
2888,000000	0,468220
2887,000000	0,471313
2886,000000	0,474337
2885,000000	0,477286
2884,000000	0,479988
2883,000000	0,482228
2882,000000	0,483941
2881,000000	0,484987
2880,000000	0,485204
2879,000000	0,485069
2878,000000	0,485748
2877,000000	0,487918
2876,000000	0,490920
2875,000000	0,493548
2874,000000	0,495205
2873,000000	0,495812
2872,000000	0,495237
2871,000000	0,493674
2870,000000	0,492215
2869,000000	0,492119
2868,000000	0,493542
2867,000000	0,495509
2866,000000	0,497002
2865,000000	0,497550
2864,000000	0,497087
2863,000000	0,496023
2862,000000	0,495314
2861,000000	0,495745
2860,000000	0,497062
2859,000000	0,498291
2858,000000	0,498918
2857,000000	0,499256
2856,000000	0,499707
2855,000000	0,500180
2854,000000	0,500328
2853,000000	0,500000
2852,000000	0,499336
2851,000000	0,498643
2850,000000	0,498130
2849,000000	0,497629
2848,000000	0,496835
2847,000000	0,496024
2846,000000	0,496235
2845,000000	0,498320
2844,000000	0,502025
2843,000000	0,506317
2842,000000	0,510388
2841,000000	0,513984
2840,000000	0,517080
2839,000000	0,519745
2838,000000	0,522233
2837,000000	0,524804
2836,000000	0,527480
2835,000000	0,530210
2834,000000	0,533045
2833,000000	0,535928
2832,000000	0,538632
2831,000000	0,541220
2830,000000	0,544214
2829,000000	0,547853
2828,000000	0,551466
2827,000000	0,554061
2826,000000	0,555427
2825,000000	0,556277
2824,000000	0,557493
2823,000000	0,559513
2822,000000	0,562224
2821,000000	0,565028
2820,000000	0,567217
2819,000000	0,568615
2818,000000	0,569719
2817,000000	0,571043
2816,000000	0,572659
2815,000000	0,574537
2814,000000	0,576825
2813,000000	0,579350
2812,000000	0,581388
2811,000000	0,582501
2810,000000	0,583271
2809,000000	0,584586
2808,000000	0,586498
2807,000000	0,588394
2806,000000	0,589990
2805,000000	0,591509
2804,000000	0,593000
2803,000000	0,594211
2802,000000	0,595129
2801,000000	0,596122
2800,000000	0,597468
2799,000000	0,599110
2798,000000	0,600844
2797,000000	0,602407
2796,000000	0,603477
2795,000000	0,604018
2794,000000	0,604607
2793,000000	0,606031
2792,000000	0,608471
2791,000000	0,611257
2790,000000	0,613431
2789,000000	0,614494
2788,000000	0,614834
2787,000000	0,615529
2786,000000	0,617441
2785,000000	0,620270
2784,000000	0,622834
2783,000000	0,624448
2782,000000	0,625667
2781,000000	0,627371
2780,000000	0,629649
2779,000000	0,631978
2778,000000	0,634027
2777,000000	0,635748
2776,000000	0,637042
2775,000000	0,637917
2774,000000	0,638750
2773,000000	0,639863
2772,000000	0,641066
2771,000000	0,642067
2770,000000	0,643102
2769,000000	0,644653
2768,000000	0,646731
2767,000000	0,648910
2766,000000	0,650915
2765,000000	0,652705
2764,000000	0,654201
2763,000000	0,655393
2762,000000	0,656542
2761,000000	0,657834
2760,000000	0,658951
2759,000000	0,659428
2758,000000	0,659342
2757,000000	0,659325
2756,000000	0,660030
2755,000000	0,661835
2754,000000	0,664733
2753,000000	0,668066
2752,000000	0,670647
2751,000000	0,671699
2750,000000	0,671608
2749,000000	0,671402
2748,000000	0,671678
2747,000000	0,672430
2746,000000	0,673613
2745,000000	0,675275
2744,000000	0,677259
2743,000000	0,679258
2742,000000	0,681133
2741,000000	0,682811
2740,000000	0,684018
2739,000000	0,684546
2738,000000	0,684681
2737,000000	0,685027
2736,000000	0,685987
2735,000000	0,687655
2734,000000	0,689955
2733,000000	0,692479
2732,000000	0,694453
2731,000000	0,695393
2730,000000	0,695735
2729,000000	0,696379
2728,000000	0,697682
2727,000000	0,699268
2726,000000	0,700719
2725,000000	0,702027
2724,000000	0,703353
2723,000000	0,704710
2722,000000	0,706011
2721,000000	0,707252
2720,000000	0,708608
2719,000000	0,710364
2718,000000	0,712607
2717,000000	0,714935
2716,000000	0,716776
2715,000000	0,718146
2714,000000	0,719730
2713,000000	0,722031
2712,000000	0,724761
2711,000000	0,727295
2710,000000	0,729317
2709,000000	0,730751
2708,000000	0,731506
2707,000000	0,731767
2706,000000	0,732145
2705,000000	0,733073
2704,000000	0,734283
2703,000000	0,735265
2702,000000	0,736056
2701,000000	0,737130
2700,000000	0,738688
2699,000000	0,740399
2698,000000	0,741759
2697,000000	0,742496
2696,000000	0,742855
2695,000000	0,743647
2694,000000	0,745674
2693,000000	0,748901
2692,000000	0,752557
2691,000000	0,756184
2690,000000	0,760008
2689,000000	0,763994
2688,000000	0,767260
2687,000000	0,769066
2686,000000	0,769885
2685,000000	0,770876
2684,000000	0,772629
2683,000000	0,775014
2682,000000	0,777796
2681,000000	0,780659
2680,000000	0,782902
2679,000000	0,783963
2678,000000	0,784233
2677,000000	0,784737
2676,000000	0,786010
2675,000000	0,787729
2674,000000	0,789374
2673,000000	0,790768
2672,000000	0,792030
2671,000000	0,793413
2670,000000	0,795143
2669,000000	0,797065
2668,000000	0,798557
2667,000000	0,799163
2666,000000	0,799223
2665,000000	0,799514
2664,000000	0,800372
2663,000000	0,801459
2662,000000	0,802268
2661,000000	0,802562
2660,000000	0,802443
2659,000000	0,802279
2658,000000	0,802420
2657,000000	0,802820
2656,000000	0,803165
2655,000000	0,803480
2654,000000	0,804189
2653,000000	0,805358
2652,000000	0,806352
2651,000000	0,806685
2650,000000	0,806796
2649,000000	0,807490
2648,000000	0,808933
2647,000000	0,810618
2646,000000	0,812022
2645,000000	0,812906
2644,000000	0,813287
2643,000000	0,813594
2642,000000	0,814524
2641,000000	0,816295
2640,000000	0,818366
2639,000000	0,820301
2638,000000	0,822445
2637,000000	0,825197
2636,000000	0,828027
2635,000000	0,829994
2634,000000	0,830995
2633,000000	0,831808
2632,000000	0,833053
2631,000000	0,834800
2630,000000	0,837072
2629,000000	0,839956
2628,000000	0,843081
2627,000000	0,845652
2626,000000	0,847317
2625,000000	0,848583
2624,000000	0,850158
2623,000000	0,852113
2622,000000	0,853911
2621,000000	0,855145
2620,000000	0,856136
2619,000000	0,857721
2618,000000	0,860333
2617,000000	0,863350
2616,000000	0,865681
2615,000000	0,867083
2614,000000	0,868495
2613,000000	0,870849
2612,000000	0,874005
2611,000000	0,877114
2610,000000	0,879617
2609,000000	0,881493
2608,000000	0,882932
2607,000000	0,884245
2606,000000	0,885868
2605,000000	0,888011
2604,000000	0,890495
2603,000000	0,893189
2602,000000	0,896262
2601,000000	0,899609
2600,000000	0,902369
2599,000000	0,903575
2598,000000	0,903191
2597,000000	0,902183
2596,000000	0,901751
2595,000000	0,902669
2594,000000	0,904952
2593,000000	0,907711
2592,000000	0,909679
2591,000000	0,910410
2590,000000	0,910809
2589,000000	0,912074
2588,000000	0,914328
2587,000000	0,916713
2586,000000	0,918591
2585,000000	0,920138
2584,000000	0,921893
2583,000000	0,924184
2582,000000	0,926976
2581,000000	0,929905
2580,000000	0,932459
2579,000000	0,934399
2578,000000	0,935955
2577,000000	0,937483
2576,000000	0,939104
2575,000000	0,940848
2574,000000	0,942833
2573,000000	0,945020
2572,000000	0,947072
2571,000000	0,948751
2570,000000	0,950257
2569,000000	0,951909
2568,000000	0,953726
2567,000000	0,955594
2566,000000	0,957559
2565,000000	0,959660
2564,000000	0,961685
2563,000000	0,963392
2562,000000	0,964792
2561,000000	0,966030
2560,000000	0,967235
2559,000000	0,968631
2558,000000	0,970492
2557,000000	0,972770
2556,000000	0,975046
2555,000000	0,977016
2554,000000	0,978760
2553,000000	0,980402
2552,000000	0,981873
2551,000000	0,983169
2550,000000	0,984473
2549,000000	0,985915
2548,000000	0,987549
2547,000000	0,989634
2546,000000	0,992413
2545,000000	0,995508
2544,000000	0,998068
2543,000000	0,999664
2542,000000	1,000520
2541,000000	1,000824
2540,000000	1,000589
2539,000000	1,000372
2538,000000	1,001180
2537,000000	1,003172
2536,000000	1,005209
2535,000000	1,006239
2534,000000	1,006537
2533,000000	1,007003
2532,000000	1,007886
2531,000000	1,008832
2530,000000	1,009652
2529,000000	1,010407
2528,000000	1,011121
2527,000000	1,011968
2526,000000	1,013322
2525,000000	1,015148
2524,000000	1,016753
2523,000000	1,017664
2522,000000	1,018312
2521,000000	1,019414
2520,000000	1,021132
2519,000000	1,023287
2518,000000	1,025879
2517,000000	1,028802
2516,000000	1,031526
2515,000000	1,033648
2514,000000	1,035413
2513,000000	1,037185
2512,000000	1,038811
2511,000000	1,040035
2510,000000	1,041108
2509,000000	1,042480
2508,000000	1,044194
2507,000000	1,046018
2506,000000	1,047764
2505,000000	1,049154
2504,000000	1,049930
2503,000000	1,050522
2502,000000	1,051990
2501,000000	1,054731
2500,000000	1,057777
2499,000000	1,059955
2498,000000	1,061222
2497,000000	1,062349
2496,000000	1,063823
2495,000000	1,065655
2494,000000	1,067738
2493,000000	1,069739
2492,000000	1,071140
2491,000000	1,071971
2490,000000	1,072980
2489,000000	1,074563
2488,000000	1,076182
2487,000000	1,077498
2486,000000	1,079271
2485,000000	1,082163
2484,000000	1,085299
2483,000000	1,087124
2482,000000	1,087384
2481,000000	1,087255
2480,000000	1,087718
2479,000000	1,088770
2478,000000	1,090071
2477,000000	1,091425
2476,000000	1,092629
2475,000000	1,093608
2474,000000	1,094763
2473,000000	1,096621
2472,000000	1,099158
2471,000000	1,101903
2470,000000	1,104522
2469,000000	1,106815
2468,000000	1,108488
2467,000000	1,109539
2466,000000	1,110594
2465,000000	1,112263
2464,000000	1,114370
2463,000000	1,116368
2462,000000	1,118193
2461,000000	1,120082
2460,000000	1,121879
2459,000000	1,123217
2458,000000	1,124195
2457,000000	1,125289
2456,000000	1,126732
2455,000000	1,128505
2454,000000	1,130601
2453,000000	1,132786
2452,000000	1,134475
2451,000000	1,135503
2450,000000	1,136686
2449,000000	1,138900
2448,000000	1,141870
2447,000000	1,144588
2446,000000	1,146620
2445,000000	1,148266
2444,000000	1,149649
2443,000000	1,150522
2442,000000	1,150924
2441,000000	1,151312
2440,000000	1,152022
2439,000000	1,153127
2438,000000	1,154747
2437,000000	1,156907
2436,000000	1,159181
2435,000000	1,161032
2434,000000	1,162480
2433,000000	1,163973
2432,000000	1,165752
2431,000000	1,167729
2430,000000	1,169803
2429,000000	1,171792
2428,000000	1,173303
2427,000000	1,174208
2426,000000	1,175039
2425,000000	1,176391
2424,000000	1,178110
2423,000000	1,179601
2422,000000	1,180707
2421,000000	1,181791
2420,000000	1,183161
2419,000000	1,184943
2418,000000	1,187270
2417,000000	1,190033
2416,000000	1,192620
2415,000000	1,194477
2414,000000	1,195801
2413,000000	1,197181
2412,000000	1,198779
2411,000000	1,200347
2410,000000	1,201814
2409,000000	1,203282
2408,000000	1,204663
2407,000000	1,205850
2406,000000	1,207106
2405,000000	1,208757
2404,000000	1,210656
2403,000000	1,212449
2402,000000	1,214166
2401,000000	1,216071
2400,000000	1,218085
2399,000000	1,219868
2398,000000	1,221347
2397,000000	1,222744
2396,000000	1,224267
2395,000000	1,226144
2394,000000	1,228604
2393,000000	1,231328
2392,000000	1,233211
2391,000000	1,233186
2390,000000	1,231063
2389,000000	1,226913
2388,000000	1,219943
2387,000000	1,208656
2386,000000	1,191690
2385,000000	1,168261
2384,000000	1,137717
2383,000000	1,099611
2382,000000	1,054337
2381,000000	1,002896
2380,000000	0,946624
2379,000000	0,887186
2378,000000	0,826797
2377,000000	0,767659
2376,000000	0,710948
2375,000000	0,656987
2374,000000	0,606107
2373,000000	0,558930
2372,000000	0,515714
2371,000000	0,476263
2370,000000	0,440426
2369,000000	0,408411
2368,000000	0,380515
2367,000000	0,356666
2366,000000	0,336615
2365,000000	0,320035
2364,000000	0,306653
2363,000000	0,296660
2362,000000	0,290681
2361,000000	0,289342
2360,000000	0,292575
2359,000000	0,299793
2358,000000	0,310908
2357,000000	0,326535
2356,000000	0,347712
2355,000000	0,375781
2354,000000	0,412950
2353,000000	0,461834
2352,000000	0,521721
2351,000000	0,583915
2350,000000	0,631531
2349,000000	0,647982
2348,000000	0,628489
2347,000000	0,584328
2346,000000	0,534702
2345,000000	0,494160
2344,000000	0,467205
2343,000000	0,451786
2342,000000	0,444840
2341,000000	0,443633
2340,000000	0,445520
2339,000000	0,448715
2338,000000	0,453223
2337,000000	0,459404
2336,000000	0,466270
2335,000000	0,471984
2334,000000	0,475711
2333,000000	0,478401
2332,000000	0,482048
2331,000000	0,488821
2330,000000	0,500184
2329,000000	0,515769
2328,000000	0,533183
2327,000000	0,549544
2326,000000	0,563442
2325,000000	0,575639
2324,000000	0,588277
2323,000000	0,603838
2322,000000	0,624055
2321,000000	0,649226
2320,000000	0,678568
2319,000000	0,710960
2318,000000	0,744829
2317,000000	0,777523
2316,000000	0,806202
2315,000000	0,830116
2314,000000	0,851285
2313,000000	0,872577
2312,000000	0,895617
2311,000000	0,920749
2310,000000	0,947794
2309,000000	0,976127
2308,000000	1,004737
2307,000000	1,032960
2306,000000	1,060592
2305,000000	1,086947
2304,000000	1,110712
2303,000000	1,131421
2302,000000	1,150185
2301,000000	1,168305
2300,000000	1,185818
2299,000000	1,202181
2298,000000	1,217537
2297,000000	1,232391
2296,000000	1,246695
2295,000000	1,260047
2294,000000	1,272500
2293,000000	1,284434
2292,000000	1,296081
2291,000000	1,307724
2290,000000	1,319827
2289,000000	1,332411
2288,000000	1,344770
2287,000000	1,356211
2286,000000	1,366484
2285,000000	1,375081
2284,000000	1,381082
2283,000000	1,384397
2282,000000	1,386296
2281,000000	1,387989
2280,000000	1,389273
2279,000000	1,389405
2278,000000	1,388553
2277,000000	1,387557
2276,000000	1,386883
2275,000000	1,386620
2274,000000	1,387046
2273,000000	1,388390
2272,000000	1,390446
2271,000000	1,393015
2270,000000	1,396234
2269,000000	1,399946
2268,000000	1,403398
2267,000000	1,406231
2266,000000	1,409074
2265,000000	1,412498
2264,000000	1,416056
2263,000000	1,419050
2262,000000	1,421607
2261,000000	1,424259
2260,000000	1,427149
2259,000000	1,430388
2258,000000	1,434441
2257,000000	1,439321
2256,000000	1,444050
2255,000000	1,447799
2254,000000	1,451009
2253,000000	1,454541
2252,000000	1,458287
2251,000000	1,461468
2250,000000	1,463828
2249,000000	1,465748
2248,000000	1,467645
2247,000000	1,469928
2246,000000	1,472973
2245,000000	1,476426
2244,000000	1,479126
2243,000000	1,480503
2242,000000	1,481491
2241,000000	1,483361
2240,000000	1,486219
2239,000000	1,489330
2238,000000	1,492264
2237,000000	1,494906
2236,000000	1,497000
2235,000000	1,498568
2234,000000	1,500303
2233,000000	1,502771
2232,000000	1,505699
2231,000000	1,508618
2230,000000	1,511551
2229,000000	1,514378
2228,000000	1,516329
2227,000000	1,517001
2226,000000	1,517252
2225,000000	1,518233
2224,000000	1,520102
2223,000000	1,522403
2222,000000	1,525024
2221,000000	1,527859
2220,000000	1,530228
2219,000000	1,531574
2218,000000	1,532301
2217,000000	1,533163
2216,000000	1,534406
2215,000000	1,536103
2214,000000	1,538557
2213,000000	1,541538
2212,000000	1,543951
2211,000000	1,545196
2210,000000	1,546137
2209,000000	1,547797
2208,000000	1,549805
2207,000000	1,551195
2206,000000	1,552001
2205,000000	1,552998
2204,000000	1,554402
2203,000000	1,555931
2202,000000	1,557660
2201,000000	1,559813
2200,000000	1,562066
2199,000000	1,563968
2198,000000	1,565670
2197,000000	1,567477
2196,000000	1,569164
2195,000000	1,570460
2194,000000	1,571673
2193,000000	1,573099
2192,000000	1,574468
2191,000000	1,575659
2190,000000	1,577228
2189,000000	1,579443
2188,000000	1,581627
2187,000000	1,583283
2186,000000	1,585022
2185,000000	1,587411
2184,000000	1,589802
2183,000000	1,591403
2182,000000	1,592660
2181,000000	1,594419
2180,000000	1,596430
2179,000000	1,597907
2178,000000	1,598906
2177,000000	1,599963
2176,000000	1,600992
2175,000000	1,601806
2174,000000	1,603128
2173,000000	1,605776
2172,000000	1,609209
2171,000000	1,612061
2170,000000	1,613833
2169,000000	1,615036
2168,000000	1,616114
2167,000000	1,617218
2166,000000	1,618612
2165,000000	1,620256
2164,000000	1,621420
2163,000000	1,621653
2162,000000	1,621693
2161,000000	1,622466
2160,000000	1,623782
2159,000000	1,624997
2158,000000	1,626304
2157,000000	1,628234
2156,000000	1,630420
2155,000000	1,632109
2154,000000	1,633446
2153,000000	1,635103
2152,000000	1,636982
2151,000000	1,638441
2150,000000	1,639494
2149,000000	1,640736
2148,000000	1,642364
2147,000000	1,644176
2146,000000	1,646215
2145,000000	1,648480
2144,000000	1,650395
2143,000000	1,651489
2142,000000	1,652199
2141,000000	1,653200
2140,000000	1,654479
2139,000000	1,655917
2138,000000	1,658115
2137,000000	1,661512
2136,000000	1,665217
2135,000000	1,667854
2134,000000	1,669241
2133,000000	1,670273
2132,000000	1,671525
2131,000000	1,672991
2130,000000	1,674740
2129,000000	1,676847
2128,000000	1,678999
2127,000000	1,681012
2126,000000	1,683273
2125,000000	1,685890
2124,000000	1,687984
2123,000000	1,688811
2122,000000	1,689036
2121,000000	1,689947
2120,000000	1,691823
2119,000000	1,693998
2118,000000	1,696033
2117,000000	1,697911
2116,000000	1,699556
2115,000000	1,701062
2114,000000	1,702955
2113,000000	1,705407
2112,000000	1,707696
2111,000000	1,709209
2110,000000	1,710378
2109,000000	1,711886
2108,000000	1,713670
2107,000000	1,715501
2106,000000	1,717756
2105,000000	1,720687
2104,000000	1,723656
2103,000000	1,726032
2102,000000	1,728082
2101,000000	1,730156
2100,000000	1,731843
2099,000000	1,732932
2098,000000	1,734298
2097,000000	1,736752
2096,000000	1,739751
2095,000000	1,742265
2094,000000	1,744131
2093,000000	1,745578
2092,000000	1,746416
2091,000000	1,746850
2090,000000	1,748120
2089,000000	1,750987
2088,000000	1,754428
2087,000000	1,757072
2086,000000	1,759202
2085,000000	1,761995
2084,000000	1,765511
2083,000000	1,768760
2082,000000	1,771154
2081,000000	1,772743
2080,000000	1,773648
2079,000000	1,774400
2078,000000	1,776081
2077,000000	1,778997
2076,000000	1,781991
2075,000000	1,784124
2074,000000	1,786082
2073,000000	1,788769
2072,000000	1,791539
2071,000000	1,793195
2070,000000	1,793682
2069,000000	1,793391
2068,000000	1,791945
2067,000000	1,789433
2066,000000	1,787928
2065,000000	1,789733
2064,000000	1,794541
2063,000000	1,799935
2062,000000	1,804268
2061,000000	1,807571
2060,000000	1,810235
2059,000000	1,812525
2058,000000	1,815037
2057,000000	1,818109
2056,000000	1,820958
2055,000000	1,822675
2054,000000	1,823663
2053,000000	1,824903
2052,000000	1,826384
2051,000000	1,827582
2050,000000	1,828804
2049,000000	1,830700
2048,000000	1,832987
2047,000000	1,834987
2046,000000	1,836736
2045,000000	1,838250
2044,000000	1,838605
2043,000000	1,837400
2042,000000	1,836381
2041,000000	1,837859
2040,000000	1,841957
2039,000000	1,846893
2038,000000	1,851428
2037,000000	1,855385
2036,000000	1,858447
2035,000000	1,860334
2034,000000	1,861903
2033,000000	1,864371
2032,000000	1,867613
2031,000000	1,870547
2030,000000	1,872835
2029,000000	1,874861
2028,000000	1,876542
2027,000000	1,877622
2026,000000	1,878666
2025,000000	1,880354
2024,000000	1,882262
2023,000000	1,883504
2022,000000	1,883720
2021,000000	1,882202
2020,000000	1,877521
2019,000000	1,870215
2018,000000	1,864783
2017,000000	1,866275
2016,000000	1,874947
2015,000000	1,886281
2014,000000	1,895992
2013,000000	1,902772
2012,000000	1,906772
2011,000000	1,908269
2010,000000	1,908430
2009,000000	1,909100
2008,000000	1,910918
2007,000000	1,913076
2006,000000	1,915204
2005,000000	1,917882
2004,000000	1,921088
2003,000000	1,923879
2002,000000	1,925870
2001,000000	1,927550
2000,000000	1,929157
1999,000000	1,930833
1998,000000	1,933357
1997,000000	1,936120
1996,000000	1,934572
1995,000000	1,923424
1994,000000	1,904244
1993,000000	1,887316
1992,000000	1,883147
1991,000000	1,892927
1990,000000	1,909177
1989,000000	1,924336
1988,000000	1,936250
1987,000000	1,946171
1986,000000	1,954604
1985,000000	1,960733
1984,000000	1,964287
1983,000000	1,966116
1982,000000	1,967162
1981,000000	1,967859
1980,000000	1,968553
1979,000000	1,969744
1978,000000	1,971729
1977,000000	1,974291
1976,000000	1,976940
1975,000000	1,979386
1974,000000	1,981673
1973,000000	1,983778
1972,000000	1,984576
1971,000000	1,981294
1970,000000	1,971450
1969,000000	1,956941
1968,000000	1,945579
1967,000000	1,945932
1966,000000	1,959352
1965,000000	1,978178
1964,000000	1,992919
1963,000000	2,000169
1962,000000	2,002861
1961,000000	2,004833
1960,000000	2,007332
1959,000000	2,009747
1958,000000	2,011319
1957,000000	2,011894
1956,000000	2,012337
1955,000000	2,014166
1954,000000	2,017867
1953,000000	2,022173
1952,000000	2,025718
1951,000000	2,028286
1950,000000	2,029672
1949,000000	2,028816
1948,000000	2,024955
1947,000000	2,017301
1946,000000	2,002847
1945,000000	1,979083
1944,000000	1,952459
1943,000000	1,939594
1942,000000	1,953251
1941,000000	1,987909
1940,000000	2,024333
1939,000000	2,048226
1938,000000	2,059462
1937,000000	2,064345
1936,000000	2,066432
1935,000000	2,066899
1934,000000	2,067730
1933,000000	2,070196
1932,000000	2,073046
1931,000000	2,074918
1930,000000	2,076793
1929,000000	2,079934
1928,000000	2,082465
1927,000000	2,079008
1926,000000	2,064044
1925,000000	2,038464
1924,000000	2,013747
1923,000000	2,003989
1922,000000	2,008470
1921,000000	2,007886
1920,000000	1,987450
1919,000000	1,960628
1918,000000	1,958194
1917,000000	1,992343
1916,000000	2,043099
1915,000000	2,082265
1914,000000	2,099097
1913,000000	2,098249
1912,000000	2,085922
1911,000000	2,068800
1910,000000	2,058096
1909,000000	2,062357
1908,000000	2,078010
1907,000000	2,094665
1906,000000	2,107074
1905,000000	2,116295
1904,000000	2,123017
1903,000000	2,126926
1902,000000	2,130181
1901,000000	2,134948
1900,000000	2,138516
1899,000000	2,135682
1898,000000	2,125111
1897,000000	2,111022
1896,000000	2,100528
1895,000000	2,099725
1894,000000	2,106875
1893,000000	2,108133
1892,000000	2,089291
1891,000000	2,056543
1890,000000	2,036990
1889,000000	2,050268
1888,000000	2,086664
1887,000000	2,120803
1886,000000	2,140127
1885,000000	2,150309
1884,000000	2,158682
1883,000000	2,165613
1882,000000	2,170291
1881,000000	2,174125
1880,000000	2,177123
1879,000000	2,178327
1878,000000	2,179551
1877,000000	2,183179
1876,000000	2,187591
1875,000000	2,188728
1874,000000	2,182099
1873,000000	2,157497
1872,000000	2,101121
1871,000000	2,015632
1870,000000	1,934526
1869,000000	1,901319
1868,000000	1,931894
1867,000000	2,004085
1866,000000	2,082367
1865,000000	2,143442
1864,000000	2,179887
1863,000000	2,194543
1862,000000	2,197043
1861,000000	2,197732
1860,000000	2,200089
1859,000000	2,202459
1858,000000	2,205738
1857,000000	2,212527
1856,000000	2,220323
1855,000000	2,223957
1854,000000	2,224328
1853,000000	2,225674
1852,000000	2,224942
1851,000000	2,214565
1850,000000	2,194139
1849,000000	2,166882
1848,000000	2,123806
1847,000000	2,049411
1846,000000	1,953322
1845,000000	1,882920
1844,000000	1,887415
1843,000000	1,969677
1842,000000	2,081925
1841,000000	2,168482
1840,000000	2,206999
1839,000000	2,211633
1838,000000	2,207731
1837,000000	2,210181
1836,000000	2,220210
1835,000000	2,229260
1834,000000	2,219798
1833,000000	2,172295
1832,000000	2,087482
1831,000000	2,002758
1830,000000	1,968096
1829,000000	1,994886
1828,000000	2,040568
1827,000000	2,059036
1826,000000	2,053977
1825,000000	2,066575
1824,000000	2,117875
1823,000000	2,185471
1822,000000	2,236975
1821,000000	2,262699
1820,000000	2,270363
1819,000000	2,267826
1818,000000	2,262848
1817,000000	2,264897
1816,000000	2,274011
1815,000000	2,275298
1814,000000	2,254823
1813,000000	2,217235
1812,000000	2,181554
1811,000000	2,165163
1810,000000	2,174711
1809,000000	2,204989
1808,000000	2,240962
1807,000000	2,265797
1806,000000	2,270721
1805,000000	2,254282
1804,000000	2,215364
1803,000000	2,157941
1802,000000	2,101893
1801,000000	2,074810
1800,000000	2,087307
1799,000000	2,124458
1798,000000	2,162420
1797,000000	2,179767
1796,000000	2,155101
1795,000000	2,076481
1794,000000	1,968006
1793,000000	1,890026
1792,000000	1,895820
1791,000000	1,986788
1790,000000	2,114573
1789,000000	2,219848
1788,000000	2,266719
1787,000000	2,257421
1786,000000	2,226290
1785,000000	2,209659
1784,000000	2,212648
1783,000000	2,212506
1782,000000	2,197599
1781,000000	2,187131
1780,000000	2,202064
1779,000000	2,232867
1778,000000	2,249913
1777,000000	2,230460
1776,000000	2,162049
1775,000000	2,041044
1774,000000	1,894373
1773,000000	1,787595
1772,000000	1,776976
1771,000000	1,851403
1770,000000	1,948137
1769,000000	2,026735
1768,000000	2,100327
1767,000000	2,186967
1766,000000	2,259700
1765,000000	2,269409
1764,000000	2,207139
1763,000000	2,124508
1762,000000	2,087761
1761,000000	2,115732
1760,000000	2,166997
1759,000000	2,188147
1758,000000	2,173995
1757,000000	2,168791
1756,000000	2,200182
1755,000000	2,230723
1754,000000	2,195530
1753,000000	2,082688
1752,000000	1,951529
1751,000000	1,869868
1750,000000	1,858738
1749,000000	1,900396
1748,000000	1,970457
1747,000000	2,044887
1746,000000	2,098175
1745,000000	2,118431
1744,000000	2,114349
1743,000000	2,094085
1742,000000	2,054217
1741,000000	2,007198
1740,000000	1,994040
1739,000000	2,032833
1738,000000	2,062711
1737,000000	1,990525
1736,000000	1,807498
1735,000000	1,627707
1734,000000	1,582257
1733,000000	1,692044
1732,000000	1,868630
1731,000000	2,021186
1730,000000	2,129746
1729,000000	2,218153
1728,000000	2,294672
1727,000000	2,342075
1726,000000	2,350190
1725,000000	2,334395
1724,000000	2,319530
1723,000000	2,307043
1722,000000	2,262865
1721,000000	2,141337
1720,000000	1,937973
1719,000000	1,718980
1718,000000	1,581907
1717,000000	1,578068
1716,000000	1,681729
1715,000000	1,833986
1714,000000	1,994207
1713,000000	2,139465
1712,000000	2,243633
1711,000000	2,287299
1710,000000	2,275863
1709,000000	2,223824
1708,000000	2,136139
1707,000000	2,031736
1706,000000	1,961840
1705,000000	1,952791
1704,000000	1,941121
1703,000000	1,827571
1702,000000	1,615734
1701,000000	1,440173
1700,000000	1,415102
1699,000000	1,500785
1698,000000	1,573726
1697,000000	1,596013
1696,000000	1,651245
1695,000000	1,812766
1694,000000	2,037562
1693,000000	2,214521
1692,000000	2,279221
1691,000000	2,258709
1690,000000	2,215712
1689,000000	2,172236
1688,000000	2,085114
1687,000000	1,902296
1686,000000	1,653602
1685,000000	1,467082
1684,000000	1,463970
1683,000000	1,640382
1682,000000	1,878070
1681,000000	2,068154
1680,000000	2,180589
1679,000000	2,217240
1678,000000	2,165894
1677,000000	2,041877
1676,000000	1,928374
1675,000000	1,909678
1674,000000	1,971589
1673,000000	2,012896
1672,000000	1,965205
1671,000000	1,868681
1670,000000	1,823262
1669,000000	1,890619
1668,000000	2,046843
1667,000000	2,205053
1666,000000	2,276471
1665,000000	2,233976
1664,000000	2,137901
1663,000000	2,087406
1662,000000	2,131836
1661,000000	2,235825
1660,000000	2,328557
1659,000000	2,363308
1658,000000	2,315461
1657,000000	2,151131
1656,000000	1,853206
1655,000000	1,492107
1654,000000	1,232963
1653,000000	1,220427
1652,000000	1,441224
1651,000000	1,719456
1650,000000	1,861246
1649,000000	1,814167
1648,000000	1,687329
1647,000000	1,635843
1646,000000	1,732501
1645,000000	1,934922
1644,000000	2,143365
1643,000000	2,282768
1642,000000	2,337544
1641,000000	2,327643
1640,000000	2,260310
1639,000000	2,118502
1638,000000	1,908054
1637,000000	1,704064
1636,000000	1,621230
1635,000000	1,719933
1634,000000	1,947387
1633,000000	2,180600
1632,000000	2,318862
1631,000000	2,337634
1630,000000	2,277239
1629,000000	2,200211
1628,000000	2,148410
1627,000000	2,117789
1626,000000	2,071495
1625,000000	1,993064
1624,000000	1,922824
1623,000000	1,922150
1622,000000	1,996164
1621,000000	2,067694
1620,000000	2,044035
1619,000000	1,908980
1618,000000	1,743476
1617,000000	1,659754
1616,000000	1,710618
1615,000000	1,853697
1614,000000	1,995243
1613,000000	2,067365
1612,000000	2,067788
1611,000000	2,036531
1610,000000	2,007792
1609,000000	1,992298
1608,000000	1,989926
1607,000000	1,998779
1606,000000	2,010265
1605,000000	2,012256
1604,000000	2,003329
1603,000000	1,995294
1602,000000	1,997059
1601,000000	2,004113
1600,000000	2,007561
1599,000000	2,004283
1598,000000	1,994111
1597,000000	1,976305
1596,000000	1,955368
1595,000000	1,942289
1594,000000	1,942594
1593,000000	1,948675
1592,000000	1,950620
1591,000000	1,949168
1590,000000	1,950850
1589,000000	1,955879
1588,000000	1,959149
1587,000000	1,959715
1586,000000	1,960550
1585,000000	1,960926
1584,000000	1,957807
1583,000000	1,953473
1582,000000	1,951360
1581,000000	1,938594
1580,000000	1,883208
1579,000000	1,761888
1578,000000	1,599396
1577,000000	1,472907
1576,000000	1,460705
1575,000000	1,570367
1574,000000	1,716734
1573,000000	1,786083
1572,000000	1,734557
1571,000000	1,623557
1570,000000	1,555320
1569,000000	1,578379
1568,000000	1,656983
1567,000000	1,724995
1566,000000	1,752080
1565,000000	1,750889
1564,000000	1,726821
1563,000000	1,640937
1562,000000	1,446035
1561,000000	1,166594
1560,000000	0,923063
1559,000000	0,845142
1558,000000	0,954401
1557,000000	1,152045
1556,000000	1,326540
1555,000000	1,447911
1554,000000	1,545479
1553,000000	1,630836
1552,000000	1,683806
1551,000000	1,703477
1550,000000	1,721302
1549,000000	1,751782
1548,000000	1,761499
1547,000000	1,710654
1546,000000	1,603464
1545,000000	1,476876
1544,000000	1,352394
1543,000000	1,223612
1542,000000	1,092529
1541,000000	1,001234
1540,000000	1,014799
1539,000000	1,162829
1538,000000	1,391113
1537,000000	1,580431
1536,000000	1,638268
1535,000000	1,583618
1534,000000	1,525662
1533,000000	1,552695
1532,000000	1,652093
1531,000000	1,744093
1530,000000	1,767956
1529,000000	1,722815
1528,000000	1,645682
1527,000000	1,576698
1526,000000	1,533156
1525,000000	1,494712
1524,000000	1,424078
1523,000000	1,322306
1522,000000	1,250594
1521,000000	1,266957
1520,000000	1,351611
1519,000000	1,429174
1518,000000	1,465015
1517,000000	1,499307
1516,000000	1,575416
1515,000000	1,673504
1514,000000	1,739316
1513,000000	1,750914
1512,000000	1,720625
1511,000000	1,647413
1510,000000	1,508374
1509,000000	1,310583
1508,000000	1,128262
1507,000000	1,066399
1506,000000	1,180429
1505,000000	1,427603
1504,000000	1,693059
1503,000000	1,867867
1502,000000	1,912818
1501,000000	1,857788
1500,000000	1,754566
1499,000000	1,642675
1498,000000	1,556147
1497,000000	1,532478
1496,000000	1,590243
1495,000000	1,696667
1494,000000	1,777733
1493,000000	1,773373
1492,000000	1,687531
1491,000000	1,583474
1490,000000	1,531511
1489,000000	1,559007
1488,000000	1,646850
1487,000000	1,761206
1486,000000	1,876733
1485,000000	1,971274
1484,000000	2,022673
1483,000000	2,028783
1482,000000	2,017998
1481,000000	2,017853
1480,000000	2,017364
1479,000000	1,982029
1478,000000	1,902227
1477,000000	1,801605
1476,000000	1,698645
1475,000000	1,592000
1474,000000	1,497757
1473,000000	1,468413
1472,000000	1,547235
1471,000000	1,712081
1470,000000	1,884203
1469,000000	1,986542
1468,000000	1,987353
1467,000000	1,909253
1466,000000	1,816723
1465,000000	1,781728
1464,000000	1,829840
1463,000000	1,913796
1462,000000	1,947635
1461,000000	1,871841
1460,000000	1,688777
1459,000000	1,461557
1458,000000	1,290041
1457,000000	1,262262
1456,000000	1,391122
1455,000000	1,598908
1454,000000	1,781887
1453,000000	1,890086
1452,000000	1,934795
1451,000000	1,938461
1450,000000	1,913121
1449,000000	1,882031
1448,000000	1,883866
1447,000000	1,936721
1446,000000	2,016461
1445,000000	2,083850
1444,000000	2,122112
1443,000000	2,140132
1442,000000	2,146604
1441,000000	2,128687
1440,000000	2,056798
1439,000000	1,919117
1438,000000	1,760193
1437,000000	1,669156
1436,000000	1,704352
1435,000000	1,831050
1434,000000	1,951452
1433,000000	1,998195
1432,000000	1,980610
1431,000000	1,948892
1430,000000	1,941712
1429,000000	1,968488
1428,000000	2,011587
1427,000000	2,035557
1426,000000	2,017565
1425,000000	1,977073
1424,000000	1,951628
1423,000000	1,935796
1422,000000	1,878574
1421,000000	1,759766
1420,000000	1,640246
1419,000000	1,606854
1418,000000	1,681083
1417,000000	1,809028
1416,000000	1,924304
1415,000000	1,995802
1414,000000	2,022938
1413,000000	2,017923
1412,000000	2,000131
1411,000000	1,987057
1410,000000	1,980174
1409,000000	1,965836
1408,000000	1,932164
1407,000000	1,881426
1406,000000	1,831570
1405,000000	1,807984
1404,000000	1,821972
1403,000000	1,849633
1402,000000	1,846201
1401,000000	1,795061
1400,000000	1,730663
1399,000000	1,695265
1398,000000	1,687981
1397,000000	1,678393
1396,000000	1,661319
1395,000000	1,669619
1394,000000	1,728127
1393,000000	1,818328
1392,000000	1,894239
1391,000000	1,919441
1390,000000	1,887381
1389,000000	1,823446
1388,000000	1,774153
1387,000000	1,777163
1386,000000	1,829860
1385,000000	1,894759
1384,000000	1,938840
1383,000000	1,957866
1382,000000	1,963252
1381,000000	1,961720
1380,000000	1,955523
1379,000000	1,947336
1378,000000	1,933198
1377,000000	1,901798
1376,000000	1,854123
1375,000000	1,816379
1374,000000	1,818918
1373,000000	1,863006
1372,000000	1,917550
1371,000000	1,950751
1370,000000	1,958005
1369,000000	1,957712
1368,000000	1,964678
1367,000000	1,970021
1366,000000	1,949308
1365,000000	1,891757
1364,000000	1,819835
1363,000000	1,775543
1362,000000	1,784123
1361,000000	1,834522
1360,000000	1,894738
1359,000000	1,939421
1358,000000	1,961767
1357,000000	1,967535
1356,000000	1,966547
1355,000000	1,967850
1354,000000	1,975139
1353,000000	1,984572
1352,000000	1,989848
1351,000000	1,989682
1350,000000	1,988462
1349,000000	1,990333
1348,000000	1,995258
1347,000000	2,001035
1346,000000	2,006232
1345,000000	2,008846
1344,000000	2,002802
1343,000000	1,979481
1342,000000	1,937056
1341,000000	1,888734
1340,000000	1,857951
1339,000000	1,861024
1338,000000	1,894331
1337,000000	1,940293
1336,000000	1,983045
1335,000000	2,016068
1334,000000	2,038656
1333,000000	2,051760
1332,000000	2,058548
1331,000000	2,063861
1330,000000	2,070423
1329,000000	2,077437
1328,000000	2,083447
1327,000000	2,087464
1326,000000	2,086783
1325,000000	2,077083
1324,000000	2,055777
1323,000000	2,023408
1322,000000	1,982144
1321,000000	1,936272
1320,000000	1,894563
1319,000000	1,867429
1318,000000	1,858787
1317,000000	1,862637
1316,000000	1,869360
1315,000000	1,874163
1314,000000	1,878642
1313,000000	1,886197
1312,000000	1,897728
1311,000000	1,910691
1310,000000	1,921076
1309,000000	1,926938
1308,000000	1,930121
1307,000000	1,933791
1306,000000	1,938635
1305,000000	1,942949
1304,000000	1,945861
1303,000000	1,948191
1302,000000	1,950340
1301,000000	1,951552
1300,000000	1,951744
1299,000000	1,952068
1298,000000	1,953231
1297,000000	1,954897
1296,000000	1,956954
1295,000000	1,959700
1294,000000	1,962574
1293,000000	1,964344
1292,000000	1,964699
1291,000000	1,964309
1290,000000	1,963578
1289,000000	1,962993
1288,000000	1,964249
1287,000000	1,968887
1286,000000	1,975837
1285,000000	1,982318
1284,000000	1,987121
1283,000000	1,991244
1282,000000	1,995423
1281,000000	1,999041
1280,000000	2,001376
1279,000000	2,001682
1278,000000	1,997766
1277,000000	1,986850
1276,000000	1,968248
1275,000000	1,943667
1274,000000	1,915001
1273,000000	1,883345
1272,000000	1,850340
1271,000000	1,818251
1270,000000	1,788421
1269,000000	1,761383
1268,000000	1,738595
1267,000000	1,722054
1266,000000	1,711848
1265,000000	1,705778
1264,000000	1,701592
1263,000000	1,698611
1262,000000	1,697064
1261,000000	1,697646
1260,000000	1,701651
1259,000000	1,709546
1258,000000	1,719387
1257,000000	1,728205
1256,000000	1,734938
1255,000000	1,740499
1254,000000	1,745233
1253,000000	1,748313
1252,000000	1,749665
1251,000000	1,750397
1250,000000	1,750983
1249,000000	1,750782
1248,000000	1,749570
1247,000000	1,747943
1246,000000	1,746098
1245,000000	1,743832
1244,000000	1,741762
1243,000000	1,740755
1242,000000	1,740123
1241,000000	1,738230
1240,000000	1,735022
1239,000000	1,732150
1238,000000	1,730308
1237,000000	1,728334
1236,000000	1,725227
1235,000000	1,721345
1234,000000	1,717261
1233,000000	1,713095
1232,000000	1,709321
1231,000000	1,706601
1230,000000	1,704386
1229,000000	1,701193
1228,000000	1,696601
1227,000000	1,691611
1226,000000	1,686914
1225,000000	1,682274
1224,000000	1,677772
1223,000000	1,673985
1222,000000	1,670645
1221,000000	1,666673
1220,000000	1,661917
1219,000000	1,657411
1218,000000	1,653592
1217,000000	1,649683
1216,000000	1,645105
1215,000000	1,640164
1214,000000	1,635092
1213,000000	1,629793
1212,000000	1,624751
1211,000000	1,620797
1210,000000	1,617732
1209,000000	1,614465
1208,000000	1,610633
1207,000000	1,606818
1206,000000	1,603124
1205,000000	1,599001
1204,000000	1,594545
1203,000000	1,590498
1202,000000	1,586837
1201,000000	1,582818
1200,000000	1,578540
1199,000000	1,574900
1198,000000	1,571859
1197,000000	1,568319
1196,000000	1,563986
1195,000000	1,559789
1194,000000	1,556168
1193,000000	1,552484
1192,000000	1,548466
1191,000000	1,544738
1190,000000	1,541447
1189,000000	1,537846
1188,000000	1,533693
1187,000000	1,529708
1186,000000	1,526139
1185,000000	1,522139
1184,000000	1,516983
1183,000000	1,510811
1182,000000	1,503930
1181,000000	1,496667
1180,000000	1,490129
1179,000000	1,485623
1178,000000	1,482863
1177,000000	1,480061
1176,000000	1,476218
1175,000000	1,472016
1174,000000	1,468136
1173,000000	1,464116
1172,000000	1,459516
1171,000000	1,454841
1170,000000	1,450536
1169,000000	1,446080
1168,000000	1,440811
1167,000000	1,434815
1166,000000	1,428519
1165,000000	1,422254
1164,000000	1,416544
1163,000000	1,411882
1162,000000	1,407826
1161,000000	1,403262
1160,000000	1,397892
1159,000000	1,392617
1158,000000	1,388218
1157,000000	1,384596
1156,000000	1,381494
1155,000000	1,378840
1154,000000	1,376111
1153,000000	1,372491
1152,000000	1,368113
1151,000000	1,364133
1150,000000	1,361153
1149,000000	1,358543
1148,000000	1,355666
1147,000000	1,352794
1146,000000	1,350374
1145,000000	1,348348
1144,000000	1,346671
1143,000000	1,345670
1142,000000	1,345376
1141,000000	1,345254
1140,000000	1,344926
1139,000000	1,344518
1138,000000	1,344037
1137,000000	1,343179
1136,000000	1,341936
1135,000000	1,340548
1134,000000	1,338487
1133,000000	1,334229
1132,000000	1,326494
1131,000000	1,315092
1130,000000	1,300733
1129,000000	1,284772
1128,000000	1,269307
1127,000000	1,256563
1126,000000	1,247634
1125,000000	1,242198
1124,000000	1,239251
1123,000000	1,237267
1122,000000	1,233723
1121,000000	1,225732
1120,000000	1,211874
1119,000000	1,193095
1118,000000	1,171870
1117,000000	1,151177
1116,000000	1,133955
1115,000000	1,122180
1114,000000	1,115809
1113,000000	1,113221
1112,000000	1,112751
1111,000000	1,113446
1110,000000	1,114511
1109,000000	1,115115
1108,000000	1,115043
1107,000000	1,114569
1106,000000	1,113683
1105,000000	1,112135
1104,000000	1,110269
1103,000000	1,108831
1102,000000	1,107884
1101,000000	1,106757
1100,000000	1,105170
1099,000000	1,103524
1098,000000	1,102006
1097,000000	1,100390
1096,000000	1,098716
1095,000000	1,097017
1094,000000	1,094215
1093,000000	1,088401
1092,000000	1,078903
1091,000000	1,067331
1090,000000	1,056277
1089,000000	1,047645
1088,000000	1,042270
1087,000000	1,039989
1086,000000	1,039534
1085,000000	1,039207
1084,000000	1,038198
1083,000000	1,036900
1082,000000	1,035786
1081,000000	1,034750
1080,000000	1,033736
1079,000000	1,033070
1078,000000	1,032848
1077,000000	1,032697
1076,000000	1,032506
1075,000000	1,032693
1074,000000	1,033418
1073,000000	1,034245
1072,000000	1,034850
1071,000000	1,035431
1070,000000	1,036108
1069,000000	1,036605
1068,000000	1,036874
1067,000000	1,037425
1066,000000	1,038642
1065,000000	1,040282
1064,000000	1,041900
1063,000000	1,043272
1062,000000	1,044231
1061,000000	1,044705
1060,000000	1,045126
1059,000000	1,046156
1058,000000	1,047688
1057,000000	1,048569
1056,000000	1,047705
1055,000000	1,044943
1054,000000	1,040867
1053,000000	1,036269
1052,000000	1,032036
1051,000000	1,028986
1050,000000	1,027436
1049,000000	1,027199
1048,000000	1,028106
1047,000000	1,030229
1046,000000	1,033507
1045,000000	1,037705
1044,000000	1,042721
1043,000000	1,048476
1042,000000	1,054522
1041,000000	1,060207
1040,000000	1,065304
1039,000000	1,069985
1038,000000	1,074237
1037,000000	1,077833
1036,000000	1,080873
1035,000000	1,083760
1034,000000	1,086648
1033,000000	1,089458
1032,000000	1,092374
1031,000000	1,095674
1030,000000	1,099089
1029,000000	1,102010
1028,000000	1,104442
1027,000000	1,107071
1026,000000	1,110296
1025,000000	1,113794
1024,000000	1,117162
1023,000000	1,120379
1022,000000	1,123508
1021,000000	1,126532
1020,000000	1,129649
1019,000000	1,133214
1018,000000	1,137215
1017,000000	1,141279
1016,000000	1,145251
1015,000000	1,149320
1014,000000	1,153543
1013,000000	1,157757
1012,000000	1,161974
1011,000000	1,166322
1010,000000	1,170601
1009,000000	1,174477
1008,000000	1,178157
1007,000000	1,182238
1006,000000	1,186791
1005,000000	1,191159
1004,000000	1,194741
1003,000000	1,197445
1002,000000	1,199316
1001,000000	1,200377
1000,000000	1,200989
999,000000	1,201789
998,000000	1,203070
997,000000	1,204585
996,000000	1,206034
995,000000	1,207302
994,000000	1,208166
993,000000	1,208340
992,000000	1,207898
991,000000	1,207238
990,000000	1,206557
989,000000	1,205772
988,000000	1,204913
987,000000	1,204090
986,000000	1,203102
985,000000	1,201639
984,000000	1,199855
983,000000	1,198226
982,000000	1,196846
981,000000	1,195362
980,000000	1,193619
979,000000	1,191778
978,000000	1,189844
977,000000	1,187619
976,000000	1,185166
975,000000	1,182759
974,000000	1,180382
973,000000	1,177798
972,000000	1,175124
971,000000	1,172750
970,000000	1,170682
969,000000	1,168541
968,000000	1,166215
967,000000	1,163948
966,000000	1,161774
965,000000	1,159447
964,000000	1,156922
963,000000	1,154332
962,000000	1,151548
961,000000	1,148427
960,000000	1,145429
959,000000	1,143235
958,000000	1,141675
957,000000	1,139828
956,000000	1,137316
955,000000	1,134721
954,000000	1,132545
953,000000	1,130495
952,000000	1,128145
951,000000	1,125589
950,000000	1,123083
949,000000	1,120548
948,000000	1,117809
947,000000	1,114945
946,000000	1,112138
945,000000	1,109569
944,000000	1,107537
943,000000	1,106181
942,000000	1,104954
941,000000	1,102926
940,000000	1,099878
939,000000	1,096690
938,000000	1,094378
937,000000	1,093093
936,000000	1,092092
935,000000	1,090251
934,000000	1,086658
933,000000	1,081300
932,000000	1,075383
931,000000	1,070490
930,000000	1,067213
929,000000	1,064933
928,000000	1,062908
927,000000	1,060909
926,000000	1,058850
925,000000	1,056537
924,000000	1,054098
923,000000	1,052019
922,000000	1,050433
921,000000	1,048866
920,000000	1,046949
919,000000	1,044863
918,000000	1,042839
917,000000	1,040753
916,000000	1,038469
915,000000	1,036047
914,000000	1,033333
913,000000	1,029865
912,000000	1,025578
911,000000	1,021202
910,000000	1,017588
909,000000	1,014923
908,000000	1,012819
907,000000	1,010789
906,000000	1,008458
905,000000	1,005689
904,000000	1,002751
903,000000	1,000055
902,000000	0,997598
901,000000	0,995042
900,000000	0,992434
899,000000	0,990303
898,000000	0,988914
897,000000	0,987922
896,000000	0,986935
895,000000	0,985875
894,000000	0,984564
893,000000	0,982583
892,000000	0,979882
891,000000	0,977011
890,000000	0,974347
889,000000	0,971639
888,000000	0,968669
887,000000	0,965771
886,000000	0,963163
885,000000	0,960223
884,000000	0,956084
883,000000	0,950709
882,000000	0,944900
881,000000	0,939467
880,000000	0,934837
879,000000	0,931167
878,000000	0,928299
877,000000	0,925760
876,000000	0,923271
875,000000	0,921158
874,000000	0,919856
873,000000	0,919201
872,000000	0,918673
871,000000	0,918148
870,000000	0,917911
869,000000	0,917952
868,000000	0,917754
867,000000	0,916926
866,000000	0,915659
865,000000	0,914472
864,000000	0,913733
863,000000	0,913500
862,000000	0,913554
861,000000	0,913503
860,000000	0,913028
859,000000	0,912150
858,000000	0,911164
857,000000	0,910287
856,000000	0,909470
855,000000	0,908554
854,000000	0,907461
853,000000	0,906233
852,000000	0,904972
851,000000	0,903774
850,000000	0,902677
849,000000	0,901690
848,000000	0,900873
847,000000	0,900293
846,000000	0,899863
845,000000	0,899361
844,000000	0,898733
843,000000	0,898245
842,000000	0,898138
841,000000	0,898198
840,000000	0,897801
839,000000	0,896408
838,000000	0,893958
837,000000	0,890819
836,000000	0,887476
835,000000	0,884181
834,000000	0,880707
833,000000	0,876476
832,000000	0,870965
831,000000	0,864126
830,000000	0,856412
829,000000	0,848476
828,000000	0,840900
827,000000	0,834148
826,000000	0,828679
825,000000	0,825013
824,000000	0,823728
823,000000	0,825178
822,000000	0,829198
821,000000	0,835007
820,000000	0,841451
819,000000	0,847402
818,000000	0,852017
817,000000	0,854953
816,000000	0,856468
815,000000	0,857168
814,000000	0,857418
813,000000	0,857070
812,000000	0,855900
811,000000	0,854204
810,000000	0,852673
809,000000	0,851616
808,000000	0,850636
807,000000	0,849219
806,000000	0,847411
805,000000	0,845645
804,000000	0,844040
803,000000	0,842256
802,000000	0,840109
801,000000	0,838046
800,000000	0,836787
799,000000	0,836581
798,000000	0,837001
797,000000	0,837464
796,000000	0,837837
795,000000	0,838449
794,000000	0,839608
793,000000	0,841264
792,000000	0,843211
791,000000	0,845451
790,000000	0,848104
789,000000	0,850987
788,000000	0,853572
787,000000	0,855543
786,000000	0,857119
785,000000	0,858562
784,000000	0,859605
783,000000	0,859717
782,000000	0,858850
781,000000	0,857512
780,000000	0,856119
779,000000	0,854662
778,000000	0,853078
777,000000	0,851558
776,000000	0,850321
775,000000	0,849377
774,000000	0,848653
773,000000	0,848072
772,000000	0,847381
771,000000	0,846267
770,000000	0,844867
769,000000	0,843805
768,000000	0,843448
767,000000	0,843368
766,000000	0,842847
765,000000	0,841692
764,000000	0,840284
763,000000	0,839042
762,000000	0,838152
761,000000	0,837685
760,000000	0,837589
759,000000	0,837557
758,000000	0,837136
757,000000	0,836051
756,000000	0,834414
755,000000	0,832718
754,000000	0,831581
753,000000	0,831306
752,000000	0,831591
751,000000	0,831814
750,000000	0,831575
749,000000	0,830773
748,000000	0,829289
747,000000	0,827054
746,000000	0,824422
745,000000	0,821976
744,000000	0,819847
743,000000	0,817688
742,000000	0,815418
741,000000	0,813434
740,000000	0,811947
739,000000	0,810653
738,000000	0,809328
737,000000	0,808152
736,000000	0,807137
735,000000	0,805814
734,000000	0,803844
733,000000	0,801480
732,000000	0,799150
731,000000	0,797100
730,000000	0,795609
729,000000	0,794854
728,000000	0,794326
727,000000	0,793172
726,000000	0,791338
725,000000	0,789246
724,000000	0,786020
723,000000	0,779641
722,000000	0,770221
721,000000	0,761816
720,000000	0,759134
719,000000	0,762620
718,000000	0,768186
717,000000	0,771624
716,000000	0,771896
715,000000	0,770376
714,000000	0,768506
713,000000	0,766859
712,000000	0,765417
711,000000	0,763866
710,000000	0,761804
709,000000	0,758999
708,000000	0,755420
707,000000	0,751223
706,000000	0,746894
705,000000	0,743039
704,000000	0,739652
703,000000	0,735932
702,000000	0,731186
701,000000	0,725540
700,000000	0,719494
699,000000	0,713301
698,000000	0,707127
697,000000	0,701088
696,000000	0,694732
695,000000	0,687242
694,000000	0,678622
693,000000	0,669739
692,000000	0,660863
691,000000	0,651364
690,000000	0,641493
689,000000	0,633041
688,000000	0,627256
687,000000	0,623377
686,000000	0,620143
685,000000	0,617358
684,000000	0,614895
683,000000	0,611863
682,000000	0,608097
681,000000	0,604970
680,000000	0,603347
679,000000	0,602507
678,000000	0,602148
677,000000	0,603240
676,000000	0,605626
675,000000	0,607698
674,000000	0,608780
673,000000	0,605959
672,000000	0,586294
671,000000	0,532683
670,000000	0,449512
669,000000	0,377320
668,000000	0,366072
667,000000	0,426731
666,000000	0,518030
665,000000	0,586840
664,000000	0,612878
663,000000	0,611308
662,000000	0,602901
661,000000	0,594938
660,000000	0,587088
659,000000	0,580404
658,000000	0,576079
657,000000	0,572667
656,000000	0,569031
655,000000	0,566370
654,000000	0,565296
653,000000	0,564013
652,000000	0,561218
651,000000	0,558147
650,000000	0,556517
649,000000	0,556719
648,000000	0,558827
647,000000	0,562981
646,000000	0,567902
645,000000	0,571307
644,000000	0,572626
643,000000	0,573462
642,000000	0,574743
641,000000	0,575572
640,000000	0,575334
639,000000	0,574818
638,000000	0,574384
637,000000	0,573124
636,000000	0,570807
635,000000	0,568880
634,000000	0,568504
633,000000	0,569059
632,000000	0,569512
631,000000	0,569674
630,000000	0,569235
629,000000	0,567021
628,000000	0,562519
627,000000	0,557120
626,000000	0,552853
625,000000	0,550551
624,000000	0,549800
623,000000	0,549634
622,000000	0,548456
621,000000	0,544339
620,000000	0,536723
619,000000	0,527660
618,000000	0,520551
617,000000	0,517593
616,000000	0,518354
615,000000	0,520341
614,000000	0,520883
613,000000	0,518950
612,000000	0,515482
611,000000	0,511896
610,000000	0,508514
609,000000	0,504846
608,000000	0,500858
607,000000	0,497050
606,000000	0,493562
605,000000	0,490075
604,000000	0,486537
603,000000	0,483143
602,000000	0,479800
601,000000	0,476406
600,000000	0,473509
599,000000	0,471734
598,000000	0,470711
597,000000	0,469395
596,000000	0,467251
595,000000	0,464239
594,000000	0,460094
593,000000	0,454892
592,000000	0,450119
591,000000	0,447675
590,000000	0,447478
589,000000	0,447317
588,000000	0,445293
587,000000	0,441556
586,000000	0,437363
585,000000	0,433476
584,000000	0,429917
583,000000	0,426498
582,000000	0,423177
581,000000	0,420200
580,000000	0,417824
579,000000	0,415587
578,000000	0,412359
577,000000	0,407968
576,000000	0,404146
575,000000	0,402639
574,000000	0,402790
573,000000	0,402209
572,000000	0,399677
571,000000	0,395979
570,000000	0,392123
569,000000	0,388400
568,000000	0,385289
567,000000	0,383591
566,000000	0,383058
565,000000	0,382256
564,000000	0,380317
563,000000	0,377807
562,000000	0,375405
561,000000	0,372945
560,000000	0,370246
559,000000	0,367715
558,000000	0,365514
557,000000	0,363129
556,000000	0,360375
555,000000	0,357878
554,000000	0,355971
553,000000	0,353949
552,000000	0,351067
551,000000	0,347481
550,000000	0,343699
549,000000	0,339888
548,000000	0,336292
547,000000	0,333613
546,000000	0,332332
545,000000	0,332072
544,000000	0,332034
543,000000	0,331578
542,000000	0,330201
541,000000	0,327696
540,000000	0,324637
539,000000	0,322061
538,000000	0,320336
537,000000	0,318974
536,000000	0,317581
535,000000	0,316231
534,000000	0,314820
533,000000	0,313087
532,000000	0,311449
531,000000	0,310601
530,000000	0,309805
529,000000	0,306902
528,000000	0,301014
527,000000	0,294308
526,000000	0,290107
525,000000	0,289539
524,000000	0,290766
523,000000	0,291109
522,000000	0,289118
521,000000	0,285018
520,000000	0,280001
519,000000	0,275369
518,000000	0,272076
517,000000	0,270771
516,000000	0,271772
515,000000	0,274518
514,000000	0,277382
513,000000	0,278857
512,000000	0,278869
511,000000	0,278226
510,000000	0,276993
509,000000	0,274687
508,000000	0,271949
507,000000	0,270409
506,000000	0,270209
505,000000	0,269259
504,000000	0,266116
503,000000	0,262474
502,000000	0,261445
501,000000	0,263828
500,000000	0,267429
499,000000	0,269725
498,000000	0,269937
497,000000	0,268583
496,000000	0,266177
495,000000	0,262966
494,000000	0,259337
493,000000	0,255941
492,000000	0,253441
491,000000	0,252067
490,000000	0,251304
489,000000	0,250093
488,000000	0,247525
487,000000	0,243476
486,000000	0,238655
485,000000	0,234244
484,000000	0,231387
483,000000	0,230468
482,000000	0,230632
481,000000	0,230405
480,000000	0,229028
479,000000	0,226986
478,000000	0,225008
477,000000	0,222770
476,000000	0,218904
475,000000	0,212479
474,000000	0,204602
473,000000	0,198506
472,000000	0,197200
471,000000	0,200521
470,000000	0,204952
469,000000	0,207072
468,000000	0,206921
467,000000	0,206912
466,000000	0,208085
465,000000	0,209018
464,000000	0,208472
463,000000	0,207142
462,000000	0,205686
461,000000	0,202694
460,000000	0,196610
459,000000	0,189304
458,000000	0,185784
457,000000	0,189396
456,000000	0,198170
455,000000	0,206637
454,000000	0,211132
453,000000	0,212637
452,000000	0,214335
451,000000	0,217424
450,000000	0,220200
449,000000	0,220989
448,000000	0,220421
447,000000	0,220061
446,000000	0,219981
445,000000	0,219090
444,000000	0,217576
443,000000	0,217477
442,000000	0,220353
441,000000	0,225259
440,000000	0,229407
439,000000	0,230588
438,000000	0,228914
437,000000	0,226718
436,000000	0,226610
435,000000	0,229029
434,000000	0,231955
433,000000	0,233399
432,000000	0,233531
431,000000	0,233636
430,000000	0,233698
429,000000	0,232428
428,000000	0,229215
427,000000	0,224565
426,000000	0,219059
425,000000	0,213273
424,000000	0,208074
423,000000	0,202787
422,000000	0,193781
421,000000	0,178382
420,000000	0,161161
419,000000	0,152618
418,000000	0,159002
417,000000	0,175159
416,000000	0,189681
415,000000	0,195737
414,000000	0,194565
413,000000	0,190237
412,000000	0,184753
411,000000	0,178331
410,000000	0,171344
409,000000	0,164306
408,000000	0,157376
407,000000	0,150720
406,000000	0,144663
405,000000	0,138941
404,000000	0,132503
403,000000	0,124326
402,000000	0,113908
401,000000	0,101274
400,000000	0,087504
399,000000	0,075220
398,000000	0,067209
397,000000	0,064005
396,000000	0,063512
395,000000	0,063252
394,000000	0,062261
393,000000	0,060651
392,000000	0,058443
391,000000	0,055422
390,000000	0,051655
389,000000	0,047458
388,000000	0,043071
387,000000	0,038672
386,000000	0,034573
385,000000	0,031126
384,000000	0,028513
383,000000	0,026680
382,000000	0,025379
381,000000	0,024251
380,000000	0,022972
379,000000	0,021288
378,000000	0,018926
377,000000	0,015858
376,000000	0,012781
375,000000	0,010822
374,000000	0,010394
373,000000	0,010638
372,000000	0,010449
371,000000	0,009777
370,000000	0,009365
369,000000	0,009537
368,000000	0,009759
367,000000	0,009338
366,000000	0,008132
365,000000	0,006590
364,000000	0,005311
363,000000	0,004546
362,000000	0,004069
361,000000	0,003603
360,000000	0,003297
359,000000	0,003295
358,000000	0,003298
357,000000	0,002870
356,000000	0,001935
355,000000	0,001074
354,000000	0,000828
353,000000	0,001179
352,000000	0,001808
351,000000	0,002520
350,000000	0,003094
349,000000	0,003240
348,000000	0,002906
347,000000	0,002480
346,000000	0,002341
345,000000	0,002261
344,000000	0,001873
343,000000	0,001388
342,000000	0,001192
341,000000	0,001168
340,000000	0,001032
339,000000	0,000827
338,000000	0,000546
337,000000	0,001193
336,000000	0,001691
335,000000	0,001373
334,000000	0,000972
333,000000	0,001281
332,000000	0,001502
331,000000	0,001425
330,000000	0,001472
329,000000	0,001952
328,000000	0,002451
327,000000	0,002606
326,000000	0,002605
325,000000	0,002753
324,000000	0,002558
323,000000	0,001679
322,000000	0,000552
321,000000	0,001142
320,000000	0,001833
319,000000	0,001667
318,000000	0,001070
317,000000	0,000803
316,000000	0,000705
315,000000	0,000619
314,000000	0,000769
313,000000	0,001265
312,000000	0,001795
311,000000	0,002156
310,000000	0,002149
309,000000	0,001439
308,000000	0,000584
307,000000	0,001206
306,000000	0,001371
305,000000	0,000888
304,000000	0,000640
303,000000	0,000667
302,000000	0,000520
301,000000	0,000503
300,000000	0,000792
299,000000	0,001264
298,000000	0,001641
297,000000	0,001713
296,000000	0,001450
295,000000	0,000704
294,000000	0,000775
293,000000	0,001826
292,000000	0,001740
291,000000	0,000701
290,000000	0,000380
289,000000	0,000553
288,000000	0,001212
287,000000	0,002160
286,000000	0,002218
285,000000	0,001182
284,000000	0,000251
283,000000	0,001147
282,000000	0,001178
281,000000	0,001208
280,000000	0,001415
279,000000	0,001283
278,000000	0,000675
277,000000	0,000494
276,000000	0,000433
275,000000	0,000308
274,000000	0,001079
273,000000	0,002526
272,000000	0,003837
271,000000	0,004225
270,000000	0,003722
269,000000	0,002744
268,000000	0,001688
267,000000	0,001358
266,000000	0,001309
265,000000	0,000880
264,000000	0,000378
263,000000	0,000356
262,000000	0,000606
261,000000	0,000616
260,000000	0,000575
259,000000	0,000823
258,000000	0,000922
257,000000	0,000704
256,000000	0,000501
255,000000	0,001305
254,000000	0,002067
253,000000	0,002047
252,000000	0,001207
251,000000	0,000714
250,000000	0,001505
249,000000	0,001616
248,000000	0,001228
247,000000	0,001390
246,000000	0,001934
245,000000	0,002301
244,000000	0,002254
243,000000	0,001783
242,000000	0,001572
241,000000	0,001856
240,000000	0,002132
239,000000	0,002406
238,000000	0,002215
237,000000	0,001532
236,000000	0,000883
235,000000	0,000416
234,000000	0,000312
233,000000	0,000915
232,000000	0,001867
231,000000	0,002598
230,000000	0,002906
229,000000	0,002707
228,000000	0,001763
227,000000	0,000669
226,000000	0,001137
225,000000	0,001517
224,000000	0,001609
223,000000	0,001723
222,000000	0,001775
221,000000	0,001779
220,000000	0,001715
219,000000	0,001565
218,000000	0,001459
217,000000	0,001333
216,000000	0,000991
215,000000	0,000543
214,000000	0,000247
213,000000	0,000329
212,000000	0,000508
211,000000	0,000773
210,000000	0,001145
209,000000	0,001174
208,000000	0,000680
207,000000	0,000159
206,000000	0,000446
205,000000	0,000720
204,000000	0,000497
203,000000	0,000630
202,000000	0,001209
201,000000	0,001037
200,000000	0,000342
